time_s,adc
0.000000,153
0.004000,310
0.008000,519
0.012000,469
0.016000,250
0.020000,154
0.024000,312
0.029000,519
0.032000,466
0.036000,239
0.040000,135
0.044000,295
0.048000,512
0.052000,471
0.056000,251
0.060000,147
0.064000,305
0.069000,522
0.073000,480
0.076000,264
0.080000,166
0.084000,318
0.088000,524
0.092000,476
0.096000,259
0.100000,163
0.104000,323
0.108000,531
0.113000,482
0.116000,259
0.120000,158
0.124000,318
0.128000,537
0.132000,498
0.136000,276
0.140000,165
0.144000,296
0.148000,475
0.152000,409
0.157000,178
0.160000,82
0.164000,269
0.168000,529
0.172000,533
0.176000,357
0.180000,280
0.184000,439
0.188000,638
0.192000,573
0.197000,333
0.201000,222
0.204000,371
0.208000,571
0.212000,512
0.216000,277
0.220000,163
0.224000,304
0.228000,506
0.232000,460
0.236000,243
0.241000,144
0.244000,296
0.248000,504
0.252000,457
0.256000,233
0.260000,125
0.264000,280
0.268000,491
0.272000,450
0.276000,236
0.280000,135
0.285000,288
0.288000,496
0.292000,448
0.296000,224
0.300000,120
0.304000,273
0.308000,488
0.312000,443
0.316000,221
0.320000,117
0.325000,272
0.329000,483
0.332000,436
0.336000,212
0.340000,107
0.344000,260
0.348000,471
0.352000,424
0.356000,201
0.360000,96
0.364000,248
0.369000,459
0.372000,413
0.376000,186
0.380000,71
0.384000,219
0.388000,439
0.392000,405
0.396000,191
0.400000,86
0.404000,235
0.408000,447
0.413000,405
0.416000,189
0.420000,89
0.424000,247
0.428000,469
0.432000,438
0.436000,227
0.440000,128
0.444000,283
0.448000,505
0.453000,474
0.457000,263
0.460000,164
0.464000,319
0.468000,536
0.472000,501
0.476000,283
0.480000,179
0.484000,330
0.488000,545
0.492000,506
0.497000,284
0.500000,175
0.504000,326
0.508000,545
0.512000,510
0.516000,291
0.520000,185
0.524000,333
0.528000,544
0.532000,504
0.536000,284
0.541000,176
0.544000,325
0.548000,543
0.552000,507
0.556000,288
0.560000,179
0.564000,327
0.568000,540
0.572000,499
0.576000,279
0.581000,175
0.585000,325
0.588000,537
0.592000,495
0.596000,274
0.600000,169
0.604000,321
0.608000,539
0.612000,502
0.616000,280
0.620000,169
0.625000,319
0.629000,536
0.632000,499
0.636000,280
0.640000,174
0.644000,323
0.648000,536
0.652000,494
0.656000,272
0.660000,167
0.664000,322
0.669000,540
0.672000,504
0.676000,283
0.680000,173
0.684000,319
0.688000,533
0.692000,497
0.696000,277
0.700000,170
0.704000,318
0.709000,530
0.713000,493
0.716000,275
0.720000,169
0.724000,318
0.728000,533
0.732000,496
0.736000,274
0.740000,165
0.744000,311
0.748000,524
0.753000,486
0.756000,266
0.760000,158
0.764000,314
0.768000,537
0.772000,505
0.776000,282
0.780000,168
0.784000,313
0.788000,528
0.792000,493
0.797000,272
0.800000,162
0.804000,307
0.808000,521
0.812000,485
0.816000,267
0.820000,160
0.824000,306
0.828000,520
0.832000,483
0.837000,263
0.841000,158
0.844000,307
0.848000,524
0.852000,491
0.856000,271
0.860000,157
0.864000,298
0.868000,513
0.872000,481
0.876000,265
0.881000,155
0.885000,301
0.888000,515
0.892000,476
0.896000,255
0.900000,145
0.904000,295
0.908000,512
0.912000,477
0.916000,255
0.920000,142
0.925000,287
0.928000,506
0.932000,476
0.936000,258
0.940000,148
0.944000,292
0.948000,510
0.952000,481
0.956000,262
0.960000,153
0.965000,302
0.969000,523
0.972000,491
0.976000,272
0.980000,161
0.984000,305
0.988000,521
0.992000,490
0.996000,271
1.000000,161
1.004000,309
1.009000,532
1.012000,503
1.016000,273
1.020000,133
1.024000,245
1.028000,439
1.032000,399
1.036000,198
1.040000,121
1.044000,320
1.048000,591
1.053000,600
1.056000,396
1.060000,280
1.064000,409
1.068000,606
1.072000,559
1.076000,319
1.080000,185
1.084000,313
1.088000,519
1.093000,479
1.097000,249
1.100000,133
1.104000,273
1.108000,492
1.112000,462
1.116000,239
1.120000,120
1.124000,259
1.128000,476
1.132000,451
1.137000,239
1.140000,127
1.144000,268
1.148000,485
1.152000,454
1.156000,235
1.160000,119
1.164000,258
1.168000,476
1.172000,448
1.176000,229
1.181000,111
1.184000,250
1.188000,471
1.192000,444
1.196000,226
1.200000,106
1.204000,245
1.208000,464
1.212000,436
1.216000,216
1.221000,95
1.225000,228
1.228000,447
1.232000,421
1.236000,204
1.240000,84
1.244000,218
1.248000,432
1.252000,401
1.256000,182
1.260000,64
1.265000,204
1.268000,424
1.272000,395
1.276000,176
1.280000,57
1.284000,196
1.288000,426
1.292000,410
1.296000,199
1.300000,86
1.304000,230
1.309000,456
1.312000,439
1.316000,236
1.320000,131
1.324000,278
1.328000,501
1.332000,478
1.336000,263
1.340000,151
1.344000,295
1.349000,520
1.353000,500
1.356000,283
1.360000,166
1.364000,302
1.368000,523
1.372000,501
1.376000,285
1.380000,172
1.384000,308
1.388000,526
1.393000,504
1.396000,288
1.400000,173
1.404000,314
1.408000,534
1.412000,508
1.416000,287
1.420000,167
1.424000,304
1.428000,524
1.432000,502
1.437000,286
1.440000,169
1.444000,305
1.448000,525
1.452000,499
1.456000,279
1.460000,159
1.464000,296
1.468000,521
1.472000,503
1.477000,287
1.481000,169
1.484000,307
1.488000,524
1.492000,501
1.496000,287
1.500000,171
1.504000,306
1.508000,525
1.512000,501
1.516000,282
1.521000,162
1.524000,299
1.528000,524
1.532000,505
1.536000,288
1.540000,169
1.544000,303
1.548000,519
1.552000,496
1.556000,279
1.560000,161
1.565000,297
1.568000,521
1.572000,506
1.576000,293
1.580000,172
1.584000,303
1.588000,520
1.592000,494
1.596000,276
1.600000,160
1.605000,299
1.609000,522
1.612000,500
1.616000,285
1.620000,167
1.624000,301
1.628000,520
1.632000,497
1.636000,278
1.640000,157
1.644000,290
1.649000,512
1.652000,493
1.656000,280
1.660000,164
1.664000,300
1.668000,520
1.672000,498
1.676000,278
1.680000,157
1.684000,294
1.688000,515
1.693000,494
1.696000,279
1.700000,159
1.704000,289
1.708000,508
1.712000,491
1.716000,278
1.720000,158
1.724000,288
1.728000,509
1.733000,492
1.737000,276
1.740000,150
1.744000,274
1.748000,493
1.752000,485
1.756000,279
1.760000,163
1.764000,290
1.768000,505
1.772000,483
1.777000,263
1.780000,141
1.784000,276
1.788000,500
1.792000,483
1.796000,265
1.800000,140
1.804000,274
1.808000,498
1.812000,480
1.816000,262
1.821000,141
1.824000,276
1.828000,503
1.832000,490
1.836000,278
1.840000,162
1.844000,298
1.848000,518
1.852000,496
1.856000,276
1.861000,153
1.865000,288
1.868000,511
1.872000,493
1.876000,274
1.880000,157
1.884000,298
1.888000,526
1.892000,510
1.896000,278
1.900000,125
1.905000,225
1.908000,425
1.912000,408
1.916000,218
1.920000,129
1.924000,317
1.928000,604
1.932000,631
1.936000,432
1.940000,291
1.944000,396
1.949000,593
1.952000,558
1.956000,322
1.960000,181
1.964000,295
1.968000,501
1.972000,478
1.976000,261
1.980000,138
1.984000,269
1.989000,490
1.993000,472
1.996000,252
2.000000,124
2.004000,249
2.008000,471
2.012000,457
2.016000,242
2.020000,118
2.024000,248
2.028000,473
2.033000,462
2.037000,248
2.040000,123
2.044000,250
2.048000,473
2.052000,459
2.056000,241
2.060000,110
2.064000,237
2.068000,466
2.072000,456
2.077000,239
2.080000,110
2.084000,234
2.088000,457
2.092000,441
2.096000,225
2.100000,97
2.104000,224
2.108000,444
2.112000,424
2.117000,202
2.121000,75
2.124000,208
2.128000,434
2.132000,415
2.136000,196
2.140000,68
2.144000,196
2.148000,419
2.152000,402
2.156000,189
2.161000,67
2.164000,201
2.168000,430
2.172000,419
2.176000,208
2.180000,88
2.184000,224
2.188000,455
2.192000,451
2.196000,246
2.200000,130
2.205000,266
2.208000,497
2.212000,489
2.216000,275
2.220000,151
2.224000,289
2.228000,523
2.232000,515
2.236000,297
2.240000,169
2.245000,298
2.249000,521
2.252000,505
2.256000,294
2.260000,177
2.264000,309
2.268000,531
2.272000,518
2.276000,300
2.280000,172
2.284000,298
2.289000,523
2.292000,513
2.296000,297
2.300000,171
2.304000,297
2.308000,519
2.312000,506
2.316000,289
2.320000,165
2.324000,297
2.328000,524
2.333000,513
2.336000,296
2.340000,167
2.344000,292
2.348000,515
2.352000,506
2.356000,292
2.360000,167
2.364000,296
2.368000,524
2.373000,515
2.377000,298
2.380000,164
2.384000,288
2.388000,515
2.392000,510
2.396000,294
2.400000,165
2.404000,291
2.408000,515
2.412000,504
2.417000,284
2.420000,161
2.424000,295
2.428000,526
2.432000,516
2.436000,297
2.440000,164
2.444000,286
2.448000,511
2.452000,506
2.456000,298
2.461000,171
2.464000,290
2.468000,513
2.472000,505
2.476000,292
2.480000,165
2.484000,289
2.488000,513
2.492000,506
2.496000,291
2.501000,161
2.505000,284
2.508000,511
2.512000,505
2.516000,290
2.520000,156
2.524000,274
2.528000,501
2.532000,502
2.536000,294
2.540000,163
2.545000,284
2.548000,509
2.552000,501
2.556000,285
2.560000,155
2.564000,279
2.568000,507
2.572000,502
2.576000,286
2.580000,151
2.584000,275
2.589000,504
2.592000,497
2.596000,283
2.600000,154
2.604000,279
2.608000,506
2.612000,500
2.616000,286
2.620000,155
2.624000,277
2.629000,500
2.633000,492
2.636000,274
2.640000,140
2.644000,264
2.648000,498
2.652000,499
2.656000,286
2.660000,149
2.664000,266
2.668000,488
2.673000,480
2.676000,267
2.680000,139
2.684000,262
2.688000,488
2.692000,484
2.696000,271
2.700000,141
2.704000,263
2.708000,493
2.712000,493
2.717000,281
2.720000,148
2.724000,271
2.728000,502
2.732000,501
2.736000,288
2.740000,156
2.744000,275
2.748000,499
2.752000,495
2.757000,282
2.761000,149
2.764000,271
2.768000,502
2.772000,507
2.776000,298
2.780000,160
2.784000,262
2.788000,459
2.792000,428
2.796000,195
2.801000,56
2.805000,201
2.808000,478
2.812000,531
2.816000,366
2.820000,266
2.824000,396
2.828000,617
2.832000,600
2.836000,362
2.840000,209
2.845000,319
2.848000,537
2.852000,523
2.856000,295
2.860000,151
2.864000,263
2.868000,482
2.872000,476
2.876000,262
2.880000,128
2.885000,245
2.889000,472
2.892000,468
2.896000,254
2.900000,119
2.904000,238
2.908000,467
2.912000,465
2.916000,253
2.920000,117
2.924000,234
2.929000,462
2.932000,461
2.936000,247
2.940000,112
2.944000,232
2.948000,464
2.952000,462
2.956000,244
2.960000,104
2.964000,220
2.968000,449
2.973000,451
2.976000,241
2.980000,104
2.984000,215
2.988000,439
2.992000,436
2.996000,223
3.000000,86
3.004000,200
3.008000,422
3.013000,417
3.017000,206
3.020000,71
3.024000,187
3.028000,411
3.032000,408
3.036000,198
3.040000,66
3.044000,184
3.048000,412
3.052000,412
3.057000,201
3.060000,70
3.064000,193
3.068000,430
3.072000,437
3.076000,237
3.080000,112
3.084000,235
3.088000,471
3.092000,481
3.096000,275
3.101000,143
3.104000,265
3.108000,501
3.112000,507
3.116000,295
3.120000,158
3.124000,271
3.128000,500
3.132000,507
3.136000,300
3.141000,170
3.145000,289
3.148000,517
3.152000,516
3.156000,299
3.160000,160
3.164000,278
3.168000,512
3.172000,516
3.176000,302
3.180000,164
3.185000,280
3.189000,508
3.192000,508
3.196000,294
3.200000,158
3.204000,277
3.208000,510
3.212000,514
3.216000,300
3.220000,160
3.224000,274
3.229000,504
3.232000,506
3.236000,292
3.240000,154
3.244000,272
3.248000,503
3.252000,507
3.256000,294
3.260000,160
3.264000,278
3.269000,509
3.273000,511
3.276000,295
3.280000,153
3.284000,266
3.288000,500
3.292000,511
3.296000,301
3.300000,159
3.304000,272
3.308000,503
3.313000,510
3.317000,299
3.320000,159
3.324000,274
3.328000,506
3.332000,511
3.336000,298
3.340000,160
3.344000,273
3.348000,501
3.352000,508
3.357000,299
3.360000,164
3.364000,281
3.368000,510
3.372000,512
3.376000,300
3.380000,163
3.384000,279
3.388000,512
3.392000,518
3.397000,295
3.401000,149
3.404000,268
3.408000,510
3.412000,523
3.416000,306
3.420000,163
3.424000,274
3.428000,506
3.432000,513
3.436000,300
3.441000,159
3.445000,275
3.448000,513
3.452000,523
3.456000,305
3.460000,159
3.464000,271
3.468000,505
3.472000,517
3.476000,304
3.480000,158
3.485000,266
3.488000,496
3.492000,505
3.496000,296
3.500000,160
3.504000,276
3.508000,510
3.512000,513
3.516000,292
3.520000,148
3.525000,263
3.529000,498
3.532000,503
3.536000,286
3.540000,148
3.544000,268
3.548000,505
3.552000,514
3.556000,299
3.560000,158
3.564000,274
3.569000,513
3.572000,523
3.576000,309
3.580000,165
3.584000,274
3.588000,502
3.592000,506
3.596000,295
3.600000,160
3.604000,277
3.608000,513
3.613000,527
3.616000,318
3.620000,178
3.624000,290
3.628000,521
3.632000,519
3.636000,278
3.640000,104
3.644000,194
3.648000,423
3.653000,447
3.657000,272
3.660000,179
3.664000,338
3.668000,610
3.672000,632
3.676000,423
3.680000,264
3.684000,355
3.688000,575
3.692000,582
3.697000,357
3.700000,193
3.704000,288
3.708000,513
3.712000,518
3.716000,293
3.720000,137
3.724000,245
3.728000,481
3.732000,494
3.736000,283
3.741000,139
3.744000,247
3.748000,479
3.752000,489
3.756000,276
3.760000,130
3.764000,240
3.768000,477
3.772000,488
3.776000,272
3.781000,123
3.785000,234
3.788000,476
3.792000,491
3.796000,277
3.800000,128
3.804000,233
3.808000,466
3.812000,475
3.816000,260
3.820000,115
3.825000,227
3.828000,463
3.832000,476
3.836000,263
3.840000,114
3.844000,217
3.848000,448
3.852000,456
3.856000,240
3.860000,93
3.864000,198
3.869000,433
3.872000,447
3.876000,237
3.880000,89
3.884000,190
3.888000,425
3.892000,443
3.896000,236
3.900000,90
3.904000,194
3.909000,435
3.913000,459
3.916000,258
3.920000,120
3.924000,232
3.928000,474
3.932000,496
3.936000,292
3.940000,150
3.944000,263
3.948000,504
3.953000,526
3.956000,321
3.960000,179
3.964000,288
3.968000,522
3.972000,534
3.976000,322
3.980000,181
3.984000,293
3.988000,531
3.992000,548
3.997000,333
4.000000,179
4.004000,286
4.008000,523
4.012000,543
4.016000,332
4.020000,183
4.024000,289
4.028000,523
4.032000,540
4.037000,326
4.041000,178
4.044000,287
4.048000,523
4.052000,538
4.056000,326
4.060000,178
4.064000,284
4.068000,519
4.072000,536
4.076000,326
4.081000,180
4.085000,285
4.088000,515
4.092000,524
4.096000,312
4.100000,168
4.104000,280
4.108000,518
4.112000,536
4.116000,322
4.120000,171
4.125000,277
4.128000,515
4.132000,535
4.136000,324
4.140000,171
4.144000,271
4.148000,505
4.152000,525
4.156000,316
4.160000,169
4.165000,276
4.169000,514
4.172000,531
4.176000,319
4.180000,164
4.184000,266
4.188000,503
4.192000,527
4.196000,318
4.200000,168
4.204000,271
4.209000,505
4.212000,522
4.216000,308
4.220000,159
4.224000,268
4.228000,506
4.232000,525
4.236000,312
4.240000,160
4.244000,263
4.248000,496
4.253000,516
4.256000,305
4.260000,155
4.264000,261
4.268000,502
4.272000,524
4.276000,310
4.280000,158
4.284000,258
4.288000,496
4.293000,520
4.297000,310
4.300000,160
4.304000,259
4.308000,490
4.312000,511
4.316000,306
4.320000,158
4.324000,260
4.328000,496
4.332000,518
4.337000,307
4.341000,154
4.344000,250
4.348000,484
4.352000,508
4.356000,301
4.360000,150
4.364000,250
4.368000,486
4.372000,509
4.376000,298
4.381000,144
4.384000,247
4.388000,485
4.392000,503
4.396000,290
4.400000,138
4.404000,240
4.408000,477
4.412000,498
4.416000,290
4.421000,144
4.425000,249
4.428000,489
4.432000,512
4.436000,302
4.440000,150
4.444000,251
4.448000,489
4.452000,516
4.456000,310
4.460000,158
4.465000,251
4.469000,487
4.472000,514
4.476000,310
4.480000,161
4.484000,264
4.488000,503
4.492000,529
4.496000,324
4.500000,171
4.504000,261
4.509000,481
4.512000,482
4.516000,250
4.520000,82
4.524000,184
4.528000,449
4.532000,512
4.536000,353
4.540000,249
4.544000,381
4.549000,623
4.553000,631
4.556000,411
4.560000,233
4.564000,315
4.568000,539
4.572000,553
4.576000,328
4.580000,156
4.584000,240
4.588000,470
4.593000,494
4.597000,285
4.600000,130
4.604000,227
4.608000,467
4.612000,493
4.616000,282
4.620000,126
4.624000,222
4.628000,460
4.632000,485
4.637000,277
4.640000,125
4.644000,218
4.648000,455
4.652000,482
4.656000,275
4.660000,122
4.664000,220
4.668000,457
4.672000,483
4.677000,274
4.681000,117
4.684000,211
4.688000,447
4.692000,471
4.696000,260
4.700000,105
4.704000,201
4.708000,437
4.712000,462
4.716000,253
4.721000,94
4.725000,185
4.728000,416
4.732000,439
4.736000,230
4.740000,74
4.744000,171
4.748000,412
4.752000,440
4.756000,228
4.760000,70
4.765000,161
4.768000,399
4.772000,430
4.776000,227
4.780000,74
4.784000,172
4.788000,415
4.792000,447
4.796000,246
4.800000,103
4.805000,210
4.809000,459
4.812000,496
4.816000,293
4.820000,140
4.824000,237
4.828000,482
4.832000,518
4.836000,312
4.840000,159
4.844000,260
4.849000,503
4.852000,536
4.856000,327
4.860000,167
4.864000,260
4.868000,500
4.872000,534
4.876000,327
4.880000,168
4.884000,259
4.888000,495
4.893000,526
4.896000,321
4.900000,168
4.904000,263
4.908000,499
4.912000,530
4.916000,318
4.920000,158
4.924000,256
4.928000,498
4.933000,532
4.937000,320
4.940000,160
4.944000,255
4.948000,497
4.952000,533
4.956000,327
4.960000,166
4.964000,256
4.968000,493
4.972000,529
4.977000,325
4.980000,165
4.984000,254
4.988000,490
4.992000,524
4.996000,321
5.000000,165
5.004000,257
5.008000,496
5.012000,530
5.016000,321
5.021000,154
5.024000,246
5.028000,491
5.032000,535
5.036000,336
5.040000,175
5.044000,260
5.048000,495
5.052000,530
5.056000,326
5.061000,167
5.065000,256
5.068000,494
5.072000,530
5.076000,324
5.080000,165
5.084000,256
5.088000,494
5.092000,530
5.096000,325
5.100000,165
5.105000,253
5.109000,494
5.112000,531
5.116000,323
5.120000,164
5.124000,256
5.128000,493
5.132000,529
5.136000,326
5.140000,166
5.144000,253
5.149000,489
5.152000,527
5.156000,324
5.160000,163
5.164000,250
5.168000,489
5.172000,529
5.176000,327
5.180000,167
5.184000,252
5.189000,488
5.193000,524
5.196000,321
5.200000,163
5.204000,250
5.208000,483
5.212000,521
5.216000,319
5.220000,162
5.224000,252
5.228000,492
5.233000,528
5.237000,320
5.240000,154
5.244000,240
5.248000,481
5.252000,522
5.256000,318
5.260000,156
5.264000,237
5.268000,471
5.272000,511
5.277000,308
5.280000,148
5.284000,233
5.288000,470
5.292000,508
5.296000,303
5.300000,142
5.304000,230
5.308000,473
5.312000,516
5.317000,315
5.321000,154
5.324000,240
5.328000,481
5.332000,527
5.336000,328
5.340000,165
5.344000,248
5.348000,487
5.352000,526
5.356000,322
5.361000,159
5.365000,243
5.368000,483
5.372000,525
5.376000,327
5.380000,173
5.384000,260
5.388000,494
5.392000,522
5.396000,294
5.400000,100
5.405000,159
5.408000,394
5.412000,461
5.416000,301
5.420000,197
5.424000,331
5.428000,603
5.432000,644
5.436000,455
5.440000,271
5.445000,330
5.449000,548
5.452000,575
5.456000,355
5.460000,174
5.464000,243
5.468000,469
5.472000,503
5.476000,297
5.480000,134
5.484000,219
5.489000,458
5.492000,498
5.496000,291
5.500000,123
5.504000,206
5.508000,445
5.512000,486
5.516000,286
5.520000,127
5.524000,212
5.528000,446
5.533000,484
5.536000,284
5.540000,119
5.544000,197
5.548000,441
5.552000,489
5.556000,288
5.560000,120
5.564000,197
5.568000,432
5.573000,473
5.577000,269
5.580000,106
5.584000,190
5.588000,428
5.592000,469
5.596000,264
5.600000,95
5.604000,170
5.608000,405
5.612000,445
5.617000,244
5.620000,81
5.624000,160
5.628000,399
5.632000,443
5.636000,241
5.640000,71
5.644000,146
5.648000,382
5.652000,429
5.656000,233
5.661000,71
5.664000,155
5.668000,399
5.672000,449
5.676000,254
5.680000,93
5.684000,180
5.688000,429
5.692000,487
5.696000,296
5.701000,137
5.705000,223
5.708000,469
5.712000,522
5.716000,323
5.720000,157
5.724000,237
5.728000,484
5.732000,539
5.736000,340
5.740000,172
5.745000,249
5.749000,484
5.752000,531
5.756000,335
5.760000,172
5.764000,254
5.768000,495
5.772000,543
5.776000,339
5.780000,169
5.784000,247
5.789000,487
5.792000,536
5.796000,336
5.800000,168
5.804000,245
5.808000,482
5.812000,531
5.816000,336
5.820000,173
5.824000,251
5.829000,485
5.833000,532
5.836000,336
5.840000,172
5.844000,250
5.848000,490
5.852000,540
5.856000,340
5.860000,170
5.864000,246
5.868000,487
5.873000,536
5.877000,338
5.880000,172
5.884000,245
5.888000,480
5.892000,528
5.896000,334
5.900000,173
5.904000,252
5.908000,488
5.912000,535
5.917000,334
5.920000,164
5.924000,237
5.928000,474
5.932000,530
5.936000,344
5.940000,181
5.944000,255
5.948000,489
5.952000,535
5.957000,334
5.961000,168
5.964000,244
5.968000,482
5.972000,532
5.976000,334
5.980000,165
5.984000,240
5.988000,479
5.992000,530
5.996000,333
6.001000,163
6.005000,237
6.008000,476
6.012000,531
6.016000,335
6.020000,166
6.024000,238
6.028000,476
6.032000,526
6.036000,331
6.040000,168
6.045000,244
6.048000,482
6.052000,532
6.056000,333
6.060000,160
6.064000,233
6.068000,474
6.072000,529
6.076000,333
6.080000,161
6.085000,232
6.089000,474
6.092000,530
6.096000,332
6.100000,162
6.104000,237
6.108000,476
6.112000,528
6.116000,329
6.120000,157
6.124000,229
6.129000,468
6.132000,522
6.136000,323
6.140000,155
6.144000,228
6.148000,465
6.152000,518
6.156000,324
6.160000,156
6.164000,229
6.168000,466
6.173000,518
6.176000,318
6.180000,147
6.184000,217
6.188000,449
6.192000,504
6.196000,314
6.200000,148
6.204000,224
6.208000,466
6.213000,524
6.217000,329
6.220000,162
6.224000,234
6.228000,473
6.232000,526
6.236000,323
6.240000,150
6.244000,226
6.248000,473
6.252000,534
6.257000,335
6.260000,161
6.264000,231
6.268000,473
6.272000,534
6.276000,344
6.280000,174
6.284000,238
6.288000,459
6.292000,485
6.296000,262
6.301000,72
6.304000,138
6.308000,403
6.312000,508
6.316000,368
6.320000,247
6.324000,349
6.328000,594
6.332000,639
6.336000,434
6.341000,237
6.345000,293
6.348000,524
6.352000,568
6.356000,357
6.360000,169
6.364000,227
6.368000,454
6.372000,504
6.376000,303
6.380000,128
6.385000,197
6.389000,442
6.392000,503
6.396000,307
6.400000,131
6.404000,196
6.408000,433
6.412000,489
6.416000,295
6.420000,123
6.424000,191
6.429000,430
6.432000,487
6.436000,290
6.440000,112
6.444000,178
6.448000,422
6.452000,483
6.456000,289
6.460000,118
6.464000,184
6.469000,420
6.473000,475
6.476000,278
6.480000,104
6.484000,169
6.488000,407
6.492000,466
6.496000,269
6.500000,91
6.504000,154
6.508000,391
6.513000,445
6.516000,248
6.520000,76
6.524000,141
6.528000,383
6.532000,440
6.536000,241
6.540000,64
6.544000,129
6.548000,375
6.552000,442
6.557000,251
6.560000,80
6.564000,150
6.568000,397
6.572000,464
6.576000,274
6.580000,104
6.584000,179
6.588000,432
6.592000,505
6.597000,318
6.601000,148
6.604000,219
6.608000,463
6.612000,529
6.616000,338
6.620000,168
6.624000,238
6.628000,475
6.632000,533
6.636000,342
6.641000,177
6.645000,251
6.648000,491
6.652000,549
6.656000,352
6.660000,176
6.664000,243
6.668000,484
6.672000,545
6.676000,349
6.680000,174
6.685000,241
6.688000,480
6.692000,544
6.696000,354
6.700000,179
6.704000,244
6.708000,481
6.712000,542
6.716000,349
6.720000,172
6.725000,235
6.729000,477
6.732000,544
6.736000,355
6.740000,178
6.744000,240
6.748000,480
6.752000,544
6.756000,349
6.760000,173
6.764000,238
6.769000,481
6.772000,548
6.776000,355
6.780000,177
6.784000,241
6.788000,481
6.792000,546
6.796000,352
6.800000,176
6.804000,238
6.808000,475
6.813000,540
6.816000,351
6.820000,178
6.824000,245
6.828000,485
6.832000,545
6.836000,351
6.840000,179
6.844000,247
6.848000,485
6.853000,543
6.857000,351
6.860000,180
6.864000,247
6.868000,484
6.872000,546
6.876000,351
6.880000,174
6.884000,238
6.888000,479
6.892000,546
6.897000,352
6.900000,176
6.904000,239
6.908000,478
6.912000,542
6.916000,349
6.920000,172
6.924000,236
6.928000,478
6.932000,544
6.936000,350
6.941000,171
6.944000,234
6.948000,477
6.952000,544
6.956000,351
6.960000,169
6.964000,231
6.968000,470
6.972000,539
6.976000,352
6.981000,180
6.985000,245
6.988000,482
6.992000,544
6.996000,351
7.000000,174
7.004000,235
7.008000,471
7.012000,535
7.016000,347
7.020000,173
7.025000,233
7.029000,468
7.032000,533
7.036000,344
7.040000,168
7.044000,228
7.048000,465
7.052000,530
7.056000,338
7.060000,160
7.064000,215
7.069000,448
7.072000,517
7.076000,336
7.080000,171
7.084000,237
7.088000,477
7.092000,544
7.096000,353
7.100000,173
7.104000,232
7.109000,472
7.113000,543
7.116000,355
7.120000,176
7.124000,235
7.128000,478
7.132000,549
7.136000,358
7.140000,177
7.144000,236
7.148000,481
7.153000,555
7.157000,365
7.160000,175
7.164000,204
7.168000,406
7.172000,455
7.176000,262
7.180000,98
7.184000,191
7.188000,484
7.192000,604
7.197000,451
7.200000,290
7.204000,350
7.208000,577
7.212000,629
7.216000,421
7.220000,224
7.224000,268
7.228000,492
7.232000,549
7.237000,348
7.241000,160
7.244000,208
7.248000,443
7.252000,514
7.256000,322
7.260000,136
7.264000,190
7.268000,434
7.272000,504
7.276000,313
7.281000,135
7.284000,195
7.288000,434
7.292000,502
7.296000,312
7.300000,133
7.304000,190
7.308000,427
7.312000,494
7.316000,303
7.320000,125
7.325000,181
7.328000,420
7.332000,492
7.336000,304
7.340000,123
7.344000,178
7.348000,414
7.352000,481
7.356000,289
7.360000,105
7.365000,162
7.369000,408
7.372000,482
7.376000,288
7.380000,99
7.384000,147
7.388000,387
7.392000,459
7.396000,268
7.400000,88
7.404000,141
7.409000,381
7.413000,451
7.416000,261
7.420000,78
7.424000,134
7.428000,381
7.432000,460
7.436000,275
7.440000,98
7.444000,156
7.448000,404
7.453000,484
7.456000,305
7.460000,133
7.464000,196
7.468000,445
7.472000,523
7.476000,344
7.480000,169
7.484000,224
7.488000,466
7.493000,545
7.497000,362
7.500000,181
7.504000,234
7.508000,474
7.512000,548
7.516000,361
7.520000,179
7.524000,236
7.528000,476
7.532000,552
7.537000,364
7.541000,179
7.544000,232
7.548000,474
7.552000,548
7.556000,361
7.560000,180
7.564000,233
7.568000,469
7.572000,545
7.576000,361
7.581000,181
7.584000,234
7.588000,469
7.592000,544
7.596000,360
7.600000,178
7.604000,230
7.608000,469
7.612000,545
7.616000,359
7.621000,180
7.625000,235
7.628000,471
7.632000,543
7.636000,356
7.640000,175
7.644000,228
7.648000,469
7.652000,546
7.656000,357
7.660000,172
7.665000,225
7.669000,466
7.672000,547
7.676000,365
7.680000,180
7.684000,228
7.688000,466
7.692000,544
7.696000,360
7.700000,177
7.704000,229
7.709000,470
7.712000,547
7.716000,358
7.720000,175
7.724000,228
7.728000,465
7.732000,542
7.736000,357
7.740000,177
7.744000,228
7.749000,462
7.753000,538
7.756000,354
7.760000,176
7.764000,230
7.768000,467
7.772000,541
7.776000,356
7.780000,175
7.784000,225
7.788000,463
7.793000,539
7.797000,355
7.800000,172
7.804000,222
7.808000,458
7.812000,536
7.816000,353
7.820000,171
7.824000,223
7.828000,461
7.832000,536
7.837000,349
7.840000,165
7.844000,215
7.848000,455
7.852000,537
7.856000,352
7.860000,169
7.864000,218
7.868000,454
7.872000,529
7.877000,346
7.881000,168
7.884000,222
7.888000,460
7.892000,535
7.896000,349
7.900000,167
7.904000,215
7.908000,449
7.912000,529
7.916000,348
7.921000,167
7.924000,212
7.928000,446
7.932000,528
7.936000,348
7.940000,163
7.944000,206
7.948000,439
7.952000,516
7.956000,332
7.960000,151
7.965000,201
7.968000,442
7.972000,525
7.976000,339
7.980000,149
7.984000,198
7.988000,441
7.992000,525
7.996000,342
8.000000,163
8.005000,218
8.009000,460
8.012000,540
8.016000,354
8.020000,167
8.024000,211
8.028000,449
8.032000,535
8.036000,354
8.040000,167
8.044000,214
8.049000,456
8.052000,543
8.056000,364
8.060000,176
8.064000,214
8.068000,432
8.072000,492
8.076000,289
8.080000,93
8.084000,147
8.088000,419
8.093000,552
8.096000,421
8.100000,278
8.104000,346
8.108000,581
8.112000,641
8.116000,440
8.120000,232
8.124000,259
8.128000,481
8.133000,551
8.137000,356
8.140000,160
8.144000,195
8.148000,428
8.152000,512
8.156000,333
8.160000,149
8.164000,191
8.168000,424
8.172000,504
8.177000,319
8.181000,130
8.184000,177
8.188000,415
8.192000,499
8.196000,321
8.200000,137
8.204000,183
8.208000,420
8.212000,502
8.216000,317
8.221000,127
8.224000,171
8.228000,408
8.232000,494
8.236000,314
8.240000,130
8.244000,171
8.248000,404
8.252000,488
8.256000,308
8.261000,123
8.265000,162
8.268000,397
8.272000,480
8.276000,295
8.280000,103
8.284000,143
8.288000,383
8.292000,470
8.296000,286
8.300000,94
8.305000,133
8.309000,371
8.312000,455
8.316000,273
8.320000,85
8.324000,126
8.328000,366
8.332000,460
8.336000,287
8.340000,101
8.344000,141
8.349000,384
8.352000,480
8.356000,308
8.360000,126
8.364000,173
8.368000,420
8.372000,513
8.376000,337
8.380000,157
8.384000,206
8.389000,451
8.393000,541
8.396000,362
8.400000,176
8.404000,220
8.408000,458
8.412000,545
8.416000,366
8.420000,179
8.424000,224
8.428000,461
8.433000,544
8.437000,364
8.440000,182
8.444000,226
8.448000,462
8.452000,547
8.456000,368
8.460000,181
8.464000,222
8.468000,458
8.472000,545
8.477000,368
8.480000,180
8.484000,221
8.488000,457
8.492000,546
8.496000,366
8.500000,178
8.504000,221
8.508000,459
8.512000,549
8.517000,367
8.521000,173
8.524000,211
8.528000,452
8.532000,547
8.536000,371
8.540000,181
8.544000,217
8.548000,453
8.552000,543
8.556000,369
8.561000,181
8.565000,219
8.568000,453
8.572000,545
8.576000,369
8.580000,180
8.584000,218
8.588000,454
8.592000,544
8.596000,366
8.600000,175
8.605000,214
8.608000,452
8.612000,542
8.616000,362
8.620000,172
8.624000,215
8.628000,454
8.632000,545
8.636000,369
8.640000,178
8.645000,213
8.649000,450
8.652000,541
8.656000,364
8.660000,176
8.664000,214
8.668000,452
8.672000,542
8.676000,363
8.680000,172
8.684000,210
8.689000,448
8.692000,541
8.696000,366
8.700000,175
8.704000,207
8.708000,442
8.712000,539
8.716000,368
8.720000,178
8.724000,212
8.728000,446
8.733000,538
8.736000,362
8.740000,173
8.744000,210
8.748000,447
8.752000,540
8.756000,364
8.760000,172
8.764000,207
8.768000,445
8.773000,540
8.777000,364
8.780000,174
8.784000,210
8.788000,448
8.792000,541
8.796000,363
8.800000,169
8.804000,200
8.808000,437
8.812000,536
8.817000,366
8.821000,177
8.824000,211
8.828000,439
8.832000,528
8.836000,354
8.840000,164
8.844000,202
8.848000,441
8.852000,533
8.856000,353
8.861000,161
8.864000,194
8.868000,429
8.872000,527
8.876000,354
8.880000,160
8.884000,186
8.888000,421
8.892000,527
8.896000,362
8.901000,174
8.905000,206
8.908000,440
8.912000,535
8.916000,363
8.920000,173
8.924000,206
8.928000,443
8.932000,540
8.936000,366
8.940000,174
8.945000,209
8.949000,446
8.952000,540
8.956000,364
8.960000,173
8.964000,209
8.968000,448
8.972000,549
8.976000,375
8.980000,172
8.984000,190
8.989000,408
8.992000,487
8.996000,301
9.000000,117
9.004000,177
9.008000,457
9.012000,605
9.016000,469
9.020000,296
9.024000,332
9.029000,556
9.033000,635
9.036000,440
9.040000,223
9.044000,239
9.048000,458
9.052000,544
9.056000,358
9.060000,151
9.064000,176
9.068000,416
9.073000,520
9.077000,348
9.080000,155
9.084000,183
9.088000,413
9.092000,507
9.096000,335
9.100000,146
9.104000,180
9.108000,416
9.112000,512
9.117000,336
9.120000,140
9.124000,169
9.128000,406
9.132000,505
9.136000,331
9.140000,138
9.144000,168
9.148000,405
9.152000,499
9.157000,324
9.161000,131
9.164000,162
9.168000,399
9.172000,495
9.176000,319
9.180000,126
9.184000,156
9.188000,391
9.192000,485
9.196000,306
9.201000,107
9.204000,136
9.208000,373
9.212000,473
9.216000,298
9.220000,101
9.224000,127
9.228000,362
9.232000,460
9.236000,284
9.240000,90
9.245000,120
9.248000,361
9.252000,465
9.256000,295
9.260000,105
9.264000,136
9.268000,375
9.272000,483
9.276000,325
9.280000,142
9.285000,177
9.289000,418
9.292000,525
9.296000,359
9.300000,171
9.304000,204
9.308000,444
9.312000,551
9.316000,384
9.320000,189
9.324000,215
9.329000,451
9.332000,554
9.336000,382
9.340000,187
9.344000,216
9.348000,453
9.352000,554
9.356000,381
9.360000,184
9.364000,212
9.368000,445
9.373000,548
9.376000,378
9.380000,186
9.384000,215
9.388000,451
9.392000,557
9.396000,388
9.400000,192
9.404000,217
9.408000,450
9.413000,551
9.417000,375
9.420000,176
9.424000,206
9.428000,449
9.432000,559
9.436000,388
9.440000,191
9.444000,217
9.448000,450
9.452000,553
9.457000,381
9.461000,184
9.464000,212
9.468000,446
9.472000,548
9.476000,379
9.480000,188
9.484000,213
9.488000,442
9.492000,545
9.496000,381
9.501000,189
9.504000,216
9.508000,450
9.512000,554
9.516000,381
9.520000,184
9.524000,209
9.528000,443
9.532000,547
9.536000,380
9.541000,187
9.545000,214
9.548000,448
9.552000,551
9.556000,380
9.560000,185
9.564000,211
9.568000,443
9.572000,545
9.576000,378
9.580000,183
9.585000,209
9.589000,442
9.592000,542
9.596000,373
9.600000,181
9.604000,209
9.608000,442
9.612000,545
9.616000,376
9.620000,183
9.624000,206
9.629000,438
9.632000,544
9.636000,376
9.640000,178
9.644000,200
9.648000,433
9.652000,541
9.656000,376
9.660000,182
9.664000,207
9.669000,440
9.673000,542
9.676000,372
9.680000,176
9.684000,201
9.688000,434
9.692000,538
9.696000,370
9.700000,175
9.704000,201
9.708000,436
9.713000,542
9.716000,370
9.720000,173
9.724000,198
9.728000,436
9.732000,544
9.736000,376
9.740000,178
9.744000,198
9.748000,430
9.752000,535
9.757000,365
9.760000,172
9.764000,199
9.768000,433
9.772000,538
9.776000,369
9.780000,174
9.784000,197
9.788000,426
9.792000,529
9.797000,358
9.801000,162
9.804000,188
9.808000,422
9.812000,528
9.816000,361
9.820000,168
9.824000,192
9.828000,428
9.832000,537
9.836000,371
9.841000,172
9.844000,197
9.848000,436
9.852000,546
9.856000,379
9.860000,182
9.864000,202
9.868000,433
9.872000,540
9.876000,375
9.880000,178
9.885000,202
9.888000,439
9.892000,553
9.896000,390
9.900000,192
9.904000,200
9.908000,405
9.912000,480
9.916000,292
9.920000,90
9.925000,130
9.929000,406
9.932000,571
9.936000,455
9.940000,297
9.944000,335
9.948000,565
9.952000,647
9.956000,470
9.960000,247
9.964000,250
9.969000,467
9.972000,560
9.976000,381
9.980000,171
9.984000,185
9.988000,416
9.992000,526
9.996000,359
10.000000,158
10.004000,175
10.008000,405
10.013000,514
10.016000,348
10.020000,148
10.024000,166
10.028000,401
10.032000,513
10.036000,345
10.040000,144
10.044000,164
10.048000,397
10.053000,506
10.057000,341
10.060000,144
10.064000,158
10.068000,385
10.072000,497
10.076000,336
10.080000,140
10.084000,157
10.088000,385
10.092000,490
10.097000,324
10.100000,129
10.104000,145
10.108000,375
10.112000,482
10.116000,313
10.120000,109
10.124000,124
10.128000,354
10.132000,463
10.136000,297
10.141000,96
10.144000,110
10.148000,342
10.152000,454
10.156000,290
10.160000,91
10.164000,106
10.168000,338
10.172000,450
10.176000,290
10.181000,101
10.185000,127
10.188000,367
10.192000,485
10.196000,328
10.200000,137
10.204000,161
10.208000,401
10.212000,521
10.216000,363
10.220000,169
10.225000,191
10.229000,431
10.232000,552
10.236000,391
10.240000,191
10.244000,208
10.248000,440
10.252000,554
10.256000,392
10.260000,193
10.264000,209
10.269000,440
10.272000,553
10.276000,391
10.280000,194
10.284000,209
10.288000,440
10.292000,558
10.296000,398
10.300000,198
10.304000,212
10.309000,442
10.313000,552
10.316000,386
10.320000,188
10.324000,209
10.328000,442
10.332000,554
10.336000,387
10.340000,188
10.344000,210
10.348000,445
10.353000,559
10.357000,393
10.360000,192
10.364000,207
10.368000,438
10.372000,551
10.376000,388
10.380000,188
10.384000,203
10.388000,437
10.392000,554
10.397000,394
10.400000,190
10.404000,201
10.408000,434
10.412000,551
10.416000,390
10.420000,189
10.424000,204
10.428000,436
10.432000,553
10.437000,389
10.441000,185
10.444000,201
10.448000,434
10.452000,553
10.456000,394
10.460000,192
10.464000,203
10.468000,433
10.472000,549
10.476000,387
10.481000,185
10.485000,195
10.488000,422
10.492000,541
10.496000,387
10.500000,192
10.504000,206
10.508000,434
10.512000,549
10.516000,385
10.520000,182
10.525000,195
10.528000,428
10.532000,544
10.536000,385
10.540000,186
10.544000,201
10.548000,431
10.552000,546
10.556000,385
10.560000,183
10.565000,193
10.569000,422
10.572000,538
10.576000,381
10.580000,182
10.584000,194
10.588000,425
10.592000,545
10.596000,387
10.600000,184
10.604000,191
10.609000,421
10.612000,543
10.616000,386
10.620000,184
10.624000,194
10.628000,423
10.632000,540
10.636000,379
10.640000,180
10.644000,197
10.648000,431
10.653000,548
10.656000,385
10.660000,181
10.664000,192
10.668000,422
10.672000,540
10.676000,376
10.680000,175
10.684000,184
10.688000,416
10.693000,540
10.697000,383
10.700000,179
10.704000,188
10.708000,419
10.712000,539
10.716000,378
10.720000,174
10.724000,182
10.728000,412
10.732000,532
10.737000,374
10.741000,170
10.744000,180
10.748000,412
10.752000,539
10.756000,388
10.760000,190
10.764000,199
10.768000,429
10.772000,550
10.776000,390
10.781000,187
10.784000,198
10.788000,431
10.792000,554
10.796000,395
10.800000,185
10.804000,196
10.808000,438
10.812000,571
10.816000,415
10.821000,200
10.825000,184
10.828000,381
10.832000,476
10.836000,305
10.840000,115
10.844000,158
10.848000,443
10.852000,620
10.856000,506
10.860000,321
10.865000,332
10.868000,549
10.872000,646
10.876000,477
10.880000,252
10.884000,240
10.888000,449
10.892000,556
10.896000,388
10.900000,175
10.904000,176
10.909000,404
10.912000,523
10.916000,363
10.920000,160
10.924000,168
10.928000,399
10.932000,520
10.936000,358
10.940000,155
10.944000,162
10.949000,393
10.953000,515
10.956000,357
10.960000,153
10.964000,158
10.968000,386
10.972000,509
10.976000,353
10.980000,148
10.984000,152
10.988000,380
10.993000,504
10.997000,345
11.000000,140
11.004000,143
11.008000,370
11.012000,493
11.016000,332
11.020000,119
11.024000,125
11.028000,361
11.032000,489
11.037000,329
11.040000,117
11.044000,112
11.048000,335
11.052000,455
11.056000,300
11.060000,98
11.064000,103
11.068000,331
11.072000,455
11.077000,297
11.081000,93
11.084000,100
11.088000,331
11.092000,458
11.096000,306
11.100000,108
11.104000,118
11.108000,355
11.112000,488
11.116000,341
11.121000,146
11.124000,157
11.128000,393
11.132000,524
11.136000,372
11.140000,177
11.144000,192
11.148000,427
11.152000,556
11.156000,403
11.160000,198
11.165000,202
11.168000,430
11.172000,556
11.176000,402
11.180000,196
11.184000,198
11.188000,426
11.192000,557
11.196000,406
11.200000,200
11.205000,200
11.209000,428
11.212000,560
11.216000,411
11.220000,205
11.224000,205
11.228000,430
11.232000,557
11.236000,403
11.240000,197
11.244000,199
11.249000,426
11.253000,553
11.256000,401
11.260000,195
11.264000,198
11.268000,425
11.272000,554
11.276000,400
11.280000,193
11.284000,195
11.288000,422
11.293000,551
11.296000,399
11.300000,193
11.304000,195
11.308000,422
11.312000,551
11.316000,400
11.320000,194
11.324000,195
11.328000,422
11.333000,551
11.337000,400
11.340000,194
11.344000,196
11.348000,422
11.352000,551
11.356000,401
11.360000,195
11.364000,196
11.368000,422
11.372000,551
11.377000,398
11.381000,192
11.384000,193
11.388000,421
11.392000,551
11.396000,399
11.400000,191
11.404000,192
11.408000,418
11.412000,549
11.416000,399
11.421000,191
11.424000,191
11.428000,418
11.432000,548
11.436000,397
11.440000,190
11.444000,191
11.448000,417
11.452000,548
11.456000,397
11.461000,189
11.465000,190
11.468000,417
11.472000,546
11.476000,396
11.480000,188
11.484000,186
11.488000,409
11.492000,540
11.496000,393
11.500000,188
11.505000,186
11.509000,413
11.512000,546
11.516000,396
11.520000,188
11.524000,185
11.528000,412
11.532000,541
11.536000,388
11.540000,180
11.544000,181
11.549000,409
11.552000,541
11.556000,391
11.560000,181
11.564000,178
11.568000,404
11.572000,537
11.576000,384
11.580000,175
11.584000,174
11.589000,401
11.593000,533
11.596000,382
11.600000,174
11.604000,168
11.608000,392
11.612000,525
11.616000,374
11.620000,166
11.624000,164
11.628000,393
11.633000,529
11.636000,383
11.640000,177
11.644000,175
11.648000,403
11.652000,538
11.656000,390
11.660000,182
11.664000,175
11.668000,399
11.672000,535
11.677000,390
11.680000,183
11.684000,180
11.688000,406
11.692000,540
11.696000,392
11.700000,188
11.704000,188
11.708000,413
11.712000,537
11.717000,369
11.721000,131
11.724000,99
11.728000,307
11.732000,447
11.736000,332
11.740000,179
11.744000,228
11.748000,497
11.752000,648
11.756000,512
11.761000,292
11.765000,271
11.768000,478
11.772000,601
11.776000,441
11.780000,213
11.784000,194
11.788000,408
11.792000,534
11.796000,377
11.800000,161
11.805000,150
11.808000,375
11.812000,512
11.816000,364
11.820000,155
11.824000,146
11.828000,370
11.832000,506
11.836000,359
11.840000,149
11.845000,141
11.849000,366
11.852000,502
11.856000,355
11.860000,144
11.864000,136
11.868000,361
11.872000,498
11.876000,350
11.880000,140
11.884000,130
11.889000,355
11.893000,492
11.896000,345
11.900000,135
11.904000,123
11.908000,345
11.912000,482
11.916000,335
11.920000,123
11.924000,110
11.928000,329
11.933000,466
11.936000,322
11.940000,114
11.944000,103
11.948000,324
11.952000,460
11.956000,312
11.960000,99
11.964000,89
11.968000,314
11.973000,455
11.977000,310
11.980000,101
11.984000,94
11.988000,323
11.992000,469
11.996000,331
12.000000,129
12.004000,125
12.008000,357
12.012000,504
12.017000,367
12.021000,164
12.024000,162
12.028000,392
12.032000,537
12.036000,396
12.040000,189
12.044000,183
12.048000,407
12.052000,550
12.056000,411
12.061000,203
12.064000,197
12.068000,420
12.072000,561
12.076000,418
12.080000,206
12.084000,196
12.088000,418
12.092000,559
12.096000,416
12.101000,206
12.105000,196
12.108000,419
12.112000,560
12.116000,417
12.120000,206
12.124000,195
12.128000,417
12.132000,559
12.136000,417
12.140000,206
12.145000,194
12.148000,416
12.152000,559
12.156000,417
12.160000,205
12.164000,193
12.168000,415
12.172000,556
12.176000,415
12.180000,206
12.184000,195
12.189000,417
12.192000,560
12.196000,419
12.200000,207
12.204000,193
12.208000,415
12.212000,560
12.216000,421
12.220000,209
12.224000,196
12.229000,417
12.233000,561
12.236000,420
12.240000,209
12.244000,195
12.248000,417
12.252000,560
12.256000,420
12.260000,208
12.264000,195
12.268000,411
12.273000,549
12.276000,411
12.280000,205
12.284000,198
12.288000,420
12.292000,563
12.296000,422
12.300000,208
12.304000,193
12.308000,414
12.312000,559
12.317000,419
12.320000,204
12.324000,191
12.328000,414
12.332000,561
12.336000,421
12.340000,207
12.344000,193
12.348000,414
12.352000,560
12.357000,421
12.361000,207
12.364000,192
12.368000,413
12.372000,558
12.376000,419
12.380000,206
12.384000,190
12.388000,408
12.392000,553
12.396000,415
12.401000,202
12.404000,186
12.408000,405
12.412000,550
12.416000,412
12.420000,199
12.424000,181
12.428000,400
12.432000,544
12.436000,405
12.440000,192
12.445000,175
12.448000,397
12.452000,545
12.456000,409
12.460000,195
12.464000,176
12.468000,400
12.472000,553
12.476000,422
12.480000,212
12.485000,196
12.489000,414
12.492000,559
12.496000,421
12.500000,208
12.504000,191
12.508000,410
12.512000,557
12.516000,420
12.520000,207
12.524000,193
12.529000,419
12.532000,569
12.536000,430
12.540000,203
12.544000,160
12.548000,354
12.552000,481
12.556000,334
12.560000,134
12.564000,156
12.568000,427
12.573000,626
12.576000,528
12.580000,324
12.584000,300
12.588000,507
12.592000,642
12.596000,494
12.600000,262
12.604000,227
12.608000,432
12.613000,569
12.617000,424
12.620000,200
12.624000,172
12.628000,386
12.632000,535
12.636000,399
12.640000,183
12.644000,160
12.648000,378
12.652000,528
12.657000,394
12.660000,179
12.664000,157
12.668000,374
12.672000,524
12.676000,390
12.680000,175
12.684000,153
12.688000,371
12.692000,522
12.696000,387
12.701000,171
12.704000,148
12.708000,365
12.712000,515
12.716000,379
12.720000,163
12.724000,140
12.728000,356
12.732000,507
12.736000,371
12.741000,154
12.745000,129
12.748000,345
12.752000,494
12.756000,357
12.760000,139
12.764000,114
12.768000,329
12.772000,479
12.776000,341
12.780000,123
12.785000,100
12.789000,320
12.792000,474
12.796000,340
12.800000,125
12.804000,101
12.808000,321
12.812000,480
12.816000,351
12.820000,141
12.824000,124
12.829000,350
12.832000,511
12.836000,386
12.840000,180
12.844000,164
12.848000,388
12.852000,545
12.856000,418
12.860000,208
12.864000,190
12.869000,407
12.873000,561
12.876000,430
12.880000,217
12.884000,198
12.888000,417
12.892000,572
12.896000,442
12.900000,225
12.904000,199
12.908000,415
12.913000,570
12.917000,439
12.920000,221
12.924000,196
12.928000,412
12.932000,568
12.936000,439
12.940000,223
12.944000,198
12.948000,412
12.952000,567
12.957000,438
12.960000,221
12.964000,196
12.968000,411
12.972000,567
12.976000,439
12.980000,222
12.984000,194
12.988000,408
12.992000,565
12.997000,436
13.001000,219
13.004000,194
13.008000,409
13.012000,565
13.016000,437
13.020000,220
13.024000,193
13.028000,407
13.032000,563
13.036000,435
13.041000,219
13.045000,191
13.048000,404
13.052000,561
13.056000,432
13.060000,214
13.064000,187
13.068000,404
13.072000,564
13.076000,439
13.080000,221
13.085000,191
13.088000,404
13.092000,561
13.096000,434
13.100000,217
13.104000,188
13.108000,401
13.112000,559
13.116000,433
13.120000,216
13.125000,188
13.129000,402
13.132000,561
13.136000,434
13.140000,213
13.144000,182
13.148000,395
13.152000,552
13.156000,425
13.160000,210
13.164000,182
13.169000,396
13.173000,556
13.176000,430
13.180000,208
13.184000,177
13.188000,392
13.192000,553
13.196000,428
13.200000,208
13.204000,177
13.208000,391
13.213000,552
13.216000,426
13.220000,208
13.224000,175
13.228000,386
13.232000,547
13.236000,422
13.240000,202
13.244000,170
13.248000,381
13.253000,540
13.257000,413
13.260000,194
13.264000,162
13.268000,374
13.272000,535
13.276000,411
13.280000,195
13.284000,164
13.288000,376
13.292000,539
13.297000,417
13.301000,201
13.304000,169
13.308000,381
13.312000,545
13.316000,426
13.320000,210
13.324000,175
13.328000,384
13.332000,548
13.336000,429
13.341000,211
13.344000,176
13.348000,388
13.352000,552
13.356000,435
13.360000,222
13.364000,189
13.368000,393
13.372000,536
13.376000,386
13.381000,142
13.385000,90
13.388000,307
13.392000,501
13.396000,424
13.400000,257
13.404000,266
13.408000,503
13.412000,651
13.416000,544
13.420000,306
13.425000,246
13.429000,437
13.432000,583
13.436000,447
13.440000,214
13.444000,167
13.448000,369
13.452000,529
13.456000,405
13.460000,185
13.464000,146
13.469000,353
13.472000,515
13.476000,395
13.480000,178
13.484000,142
13.488000,351
13.492000,516
13.496000,395
13.500000,175
13.504000,135
13.509000,344
13.513000,508
13.516000,388
13.520000,168
13.524000,128
13.528000,337
13.532000,504
13.536000,384
13.540000,163
13.544000,122
13.548000,330
13.553000,495
13.557000,372
13.560000,154
13.564000,114
13.568000,321
13.572000,486
13.576000,366
13.580000,145
13.584000,101
13.588000,306
13.592000,469
13.597000,349
13.600000,128
13.604000,85
13.608000,291
13.612000,458
13.616000,341
13.620000,121
13.624000,77
13.628000,285
13.632000,456
13.637000,342
13.641000,126
13.644000,88
13.648000,298
13.652000,472
13.656000,363
13.660000,155
13.664000,123
13.668000,338
13.672000,515
13.676000,404
13.681000,191
13.684000,156
13.688000,369
13.692000,544
13.696000,432
13.700000,215
13.704000,174
13.708000,383
13.712000,555
13.716000,442
13.720000,222
13.725000,179
13.728000,386
13.732000,555
13.736000,442
13.740000,221
13.744000,177
13.748000,383
13.752000,557
13.756000,447
13.760000,227
13.765000,182
13.769000,387
13.772000,557
13.776000,445
13.780000,224
13.784000,179
13.788000,383
13.792000,552
13.796000,441
13.800000,221
13.804000,177
13.809000,382
13.813000,553
13.816000,443
13.820000,224
13.824000,180
13.828000,383
13.832000,553
13.836000,440
13.840000,217
13.844000,173
13.848000,378
13.853000,550
13.856000,440
13.860000,219
13.864000,173
13.868000,377
13.872000,551
13.876000,443
13.880000,223
13.884000,176
13.888000,377
13.893000,549
13.897000,439
13.900000,219
13.904000,174
13.908000,378
13.912000,552
13.916000,442
13.920000,219
13.924000,169
13.928000,370
13.932000,545
13.937000,440
13.941000,220
13.944000,173
13.948000,374
13.952000,546
13.956000,437
13.960000,216
13.964000,169
13.968000,372
13.972000,548
13.976000,440
13.981000,217
13.984000,163
13.988000,363
13.992000,542
13.996000,440
14.000000,222
14.004000,173
14.008000,372
14.012000,547
14.016000,440
14.021000,218
14.025000,167
14.028000,368
14.032000,540
14.036000,433
14.040000,214
14.044000,167
14.048000,369
14.052000,543
14.056000,432
14.060000,207
14.065000,157
14.068000,361
14.072000,540
14.076000,433
14.080000,208
14.084000,153
14.088000,351
14.092000,530
14.096000,425
14.100000,201
14.104000,147
14.109000,348
14.112000,528
14.116000,427
14.120000,207
14.124000,153
14.128000,351
14.132000,530
14.136000,429
14.140000,210
14.144000,159
14.149000,363
14.153000,544
14.156000,443
14.160000,220
14.164000,166
14.168000,364
14.172000,543
14.176000,440
14.180000,217
14.184000,165
14.188000,367
14.193000,552
14.197000,455
14.200000,233
14.204000,175
14.208000,359
14.212000,512
14.216000,379
14.220000,137
14.224000,87
14.228000,316
14.232000,541
14.237000,495
14.240000,319
14.244000,294
14.248000,499
14.252000,650
14.256000,548
14.260000,306
14.264000,228
14.268000,405
14.272000,567
14.277000,453
14.281000,217
14.284000,153
14.288000,345
14.292000,523
14.296000,416
14.300000,193
14.304000,139
14.308000,337
14.312000,519
14.316000,419
14.321000,198
14.324000,139
14.328000,333
14.332000,511
14.336000,410
14.340000,188
14.344000,131
14.348000,327
14.352000,510
14.356000,410
14.360000,184
14.365000,123
14.368000,320
14.372000,506
14.376000,407
14.380000,182
14.384000,120
14.388000,312
14.392000,492
14.396000,390
14.400000,167
14.405000,108
14.409000,304
14.412000,487
14.416000,385
14.420000,159
14.424000,93
14.428000,283
14.432000,466
14.436000,366
14.440000,142
14.444000,79
14.449000,272
14.453000,456
14.456000,356
14.460000,129
14.464000,67
14.468000,266
14.472000,457
14.476000,364
14.480000,144
14.484000,85
14.488000,284
14.493000,478
14.496000,389
14.500000,173
14.504000,116
14.508000,320
14.512000,519
14.516000,435
14.520000,218
14.524000,160
14.528000,355
14.533000,543
14.537000,452
14.540000,232
14.544000,171
14.548000,365
14.552000,553
14.556000,464
14.560000,241
14.564000,179
14.568000,370
14.572000,557
14.577000,466
14.581000,241
14.584000,177
14.588000,366
14.592000,552
14.596000,458
14.600000,232
14.604000,169
14.608000,362
14.612000,554
14.616000,466
14.621000,242
14.624000,175
14.628000,363
14.632000,550
14.636000,457
14.640000,233
14.644000,170
14.648000,364
14.652000,552
14.656000,461
14.661000,236
14.665000,172
14.668000,363
14.672000,549
14.676000,457
14.680000,233
14.684000,167
14.688000,356
14.692000,548
14.696000,462
14.700000,239
14.705000,169
14.709000,357
14.712000,548
14.716000,461
14.720000,237
14.724000,167
14.728000,356
14.732000,549
14.736000,463
14.740000,238
14.744000,169
14.749000,357
14.752000,548
14.756000,460
14.760000,236
14.764000,166
14.768000,351
14.772000,538
14.776000,454
14.780000,234
14.784000,169
14.789000,358
14.793000,550
14.796000,463
14.800000,236
14.804000,164
14.808000,346
14.812000,537
14.816000,454
14.820000,232
14.824000,164
14.828000,352
14.833000,545
14.836000,459
14.840000,234
14.844000,164
14.848000,350
14.852000,541
14.856000,455
14.860000,227
14.864000,154
14.868000,342
14.872000,538
14.877000,455
14.880000,226
14.884000,152
14.888000,338
14.892000,533
14.896000,447
14.900000,218
14.904000,147
14.908000,334
14.912000,527
14.917000,445
14.921000,221
14.924000,147
14.928000,326
14.932000,518
14.936000,435
14.940000,208
14.944000,135
14.948000,321
14.952000,519
14.956000,441
14.961000,217
14.964000,142
14.968000,326
14.972000,523
14.976000,445
14.980000,226
14.984000,154
14.988000,336
14.992000,530
14.996000,453
15.000000,232
15.005000,157
15.008000,338
15.012000,534
15.016000,456
15.020000,231
15.024000,154
15.028000,335
15.032000,534
15.036000,461
15.040000,241
15.045000,161
15.049000,321
15.052000,488
15.056000,381
15.060000,141
15.064000,67
15.068000,279
15.072000,531
15.076000,511
15.080000,333
15.084000,283
15.089000,467
15.093000,648
15.096000,558
15.100000,312
15.104000,213
15.108000,374
15.112000,557
15.116000,469
15.120000,232
15.124000,142
15.128000,315
15.133000,512
15.136000,433
15.140000,207
15.144000,125
15.148000,303
15.152000,502
15.156000,427
15.160000,201
15.164000,120
15.168000,297
15.173000,497
15.177000,423
15.180000,196
15.184000,115
15.188000,294
15.192000,496
15.196000,422
15.200000,194
15.204000,110
15.208000,286
15.212000,487
15.217000,414
15.221000,187
15.224000,101
15.228000,276
15.232000,478
15.236000,406
15.240000,180
15.244000,93
15.248000,267
15.252000,470
15.256000,399
15.261000,172
15.264000,83
15.268000,254
15.272000,453
15.276000,381
15.280000,153
15.284000,64
15.288000,236
15.292000,441
15.296000,374
15.301000,150
15.305000,64
15.308000,235
15.312000,441
15.316000,378
15.320000,160
15.324000,78
15.328000,257
15.332000,470
15.336000,411
15.340000,197
15.345000,117
15.348000,297
15.352000,508
15.356000,448
15.360000,229
15.364000,148
15.368000,328
15.372000,539
15.376000,478
15.380000,253
15.384000,169
15.389000,344
15.392000,550
15.396000,485
15.400000,257
15.404000,168
15.408000,342
15.412000,549
15.416000,486
15.420000,259
15.424000,171
15.429000,343
15.433000,549
15.436000,484
15.440000,257
15.444000,165
15.448000,338
15.452000,547
15.456000,486
15.460000,258
15.464000,164
15.468000,331
15.473000,539
15.476000,481
15.480000,258
15.484000,167
15.488000,335
15.492000,541
15.496000,481
15.500000,255
15.504000,162
15.508000,330
15.512000,538
15.517000,480
15.520000,257
15.524000,168
15.528000,337
15.532000,543
15.536000,481
15.540000,254
15.544000,163
15.548000,332
15.552000,539
15.557000,479
15.561000,255
15.564000,163
15.568000,329
15.572000,538
15.576000,480
15.580000,256
15.584000,164
15.588000,331
15.592000,538
15.596000,480
15.601000,256
15.604000,159
15.608000,324
15.612000,535
15.616000,480
15.620000,255
15.624000,158
15.628000,323
15.632000,534
15.636000,480
15.640000,256
15.645000,161
15.648000,326
15.652000,533
15.656000,477
15.660000,254
15.664000,160
15.668000,324
15.672000,531
15.676000,474
15.680000,249
15.685000,151
15.689000,318
15.692000,532
15.696000,479
15.700000,256
15.704000,156
15.708000,317
15.712000,527
15.716000,474
15.720000,248
15.724000,150
15.729000,315
15.733000,528
15.736000,476
15.740000,248
15.744000,147
15.748000,307
15.752000,519
15.756000,464
15.760000,238
15.764000,140
15.768000,305
15.773000,521
15.776000,471
15.780000,249
15.784000,151
15.788000,310
15.792000,525
15.796000,479
15.800000,259
15.804000,160
15.808000,319
15.813000,532
15.817000,481
15.820000,258
15.824000,162
15.828000,325
15.832000,539
15.836000,488
15.840000,261
15.844000,161
15.848000,327
15.852000,547
15.857000,500
15.861000,266
15.864000,142
15.868000,270
15.872000,459
15.876000,397
15.880000,181
15.884000,112
15.888000,322
15.892000,589
15.896000,588
15.901000,382
15.904000,278
15.908000,422
15.912000,623
15.916000,567
15.920000,328
15.924000,209
15.928000,351
15.932000,554
15.936000,499
15.941000,264
15.945000,150
15.948000,300
15.952000,512
15.956000,466
15.960000,241
15.964000,134
15.968000,290
15.972000,508
15.976000,464
15.980000,238
15.985000,132
15.989000,288
15.992000,507
15.996000,464
16.000000,237
16.004000,125
16.008000,277
16.012000,496
16.016000,456
16.020000,232
16.024000,121
16.029000,276
16.032000,496
16.036000,457
16.040000,232
16.044000,120
16.048000,271
16.052000,489
16.056000,449
16.060000,221
16.064000,108
16.069000,258
16.073000,475
16.076000,432
16.080000,207
16.084000,95
16.088000,243
16.092000,459
16.096000,418
16.100000,191
16.104000,78
16.108000,227
16.113000,450
16.117000,413
16.120000,192
16.124000,78
16.128000,228
16.132000,453
16.136000,424
16.140000,207
16.144000,101
16.148000,259
16.152000,490
16.157000,464
16.160000,248
16.164000,141
16.168000,295
16.172000,523
16.176000,495
16.180000,277
16.184000,167
16.188000,318
16.192000,539
16.197000,507
16.201000,287
16.204000,178
16.208000,327
16.212000,548
16.216000,510
16.220000,287
16.224000,176
16.228000,326
16.232000,549
16.236000,518
16.241000,292
16.245000,176
16.248000,323
16.252000,545
16.256000,516
16.260000,291
16.264000,172
16.268000,317
16.272000,539
16.276000,511
16.280000,289
16.285000,172
16.288000,315
16.292000,537
16.296000,509
16.300000,285
16.304000,168
16.308000,313
16.312000,539
16.316000,513
16.320000,287
16.325000,167
16.329000,306
16.332000,528
16.336000,506
16.340000,289
16.344000,174
16.348000,316
16.352000,538
16.356000,510
16.360000,284
16.364000,163
16.369000,305
16.373000,531
16.376000,508
16.380000,286
16.384000,167
16.388000,307
16.392000,528
16.396000,504
16.400000,282
16.404000,160
16.408000,297
16.413000,522
16.416000,504
16.420000,288
16.424000,170
16.428000,308
16.432000,527
16.436000,499
16.440000,279
16.444000,161
16.448000,302
16.453000,528
16.457000,506
16.460000,283
16.464000,159
16.468000,296
16.472000,523
16.476000,507
16.480000,287
16.484000,162
16.488000,295
16.492000,520
16.497000,501
16.501000,278
16.504000,156
16.508000,295
16.512000,521
16.516000,499
16.520000,276
16.524000,153
16.528000,291
16.532000,520
16.536000,504
16.541000,279
16.544000,146
16.548000,276
16.552000,508
16.556000,498
16.560000,281
16.564000,153
16.568000,282
16.572000,507
16.576000,492
16.581000,271
16.585000,142
16.588000,273
16.592000,499
16.596000,485
16.600000,268
16.604000,144
16.608000,278
16.612000,506
16.616000,490
16.620000,269
16.625000,144
16.629000,283
16.632000,517
16.636000,507
16.640000,287
16.644000,156
16.648000,284
16.652000,510
16.656000,496
16.660000,278
16.664000,152
16.669000,285
16.672000,516
16.676000,507
16.680000,293
16.684000,168
16.688000,297
16.692000,517
16.696000,486
16.700000,238
16.704000,81
16.709000,198
16.713000,444
16.716000,469
16.720000,299
16.724000,216
16.728000,381
16.732000,624
16.736000,617
16.740000,395
16.744000,242
16.748000,348
16.753000,560
16.757000,535
16.760000,298
16.764000,151
16.768000,267
16.772000,494
16.776000,484
16.780000,262
16.784000,124
16.788000,246
16.792000,477
16.797000,474
16.800000,257
16.804000,122
16.808000,241
16.812000,471
16.816000,467
16.820000,250
16.824000,113
16.828000,233
16.832000,467
16.837000,466
16.841000,248
16.844000,108
16.848000,229
16.852000,465
16.856000,465
16.860000,247
16.864000,108
16.868000,226
16.872000,456
16.876000,454
16.881000,234
16.884000,93
16.888000,213
16.892000,449
16.896000,450
16.900000,231
16.904000,86
16.908000,201
16.912000,432
16.916000,429
16.920000,210
16.925000,70
16.928000,186
16.932000,417
16.936000,419
16.940000,201
16.944000,59
16.948000,178
16.952000,418
16.956000,424
16.960000,208
16.965000,69
16.969000,191
16.972000,433
16.976000,444
16.980000,235
16.984000,100
16.988000,222
16.992000,467
16.996000,484
17.000000,279
17.004000,141
17.009000,259
17.013000,500
17.016000,515
17.020000,305
17.024000,164
17.028000,279
17.032000,511
17.036000,516
17.040000,304
17.044000,167
17.048000,282
17.053000,515
17.056000,525
17.060000,313
17.064000,170
17.068000,281
17.072000,513
17.076000,523
17.080000,311
17.084000,170
17.088000,284
17.093000,518
17.097000,527
17.100000,311
17.104000,166
17.108000,279
17.112000,516
17.116000,527
17.120000,312
17.124000,166
17.128000,277
17.132000,514
17.137000,530
17.140000,318
17.144000,172
17.148000,280
17.152000,513
17.156000,523
17.160000,308
17.164000,162
17.168000,275
17.172000,516
17.176000,532
17.181000,318
17.184000,169
17.188000,273
17.192000,509
17.196000,527
17.200000,316
17.204000,167
17.208000,272
17.212000,510
17.216000,531
17.221000,321
17.225000,171
17.228000,276
17.232000,511
17.236000,529
17.240000,318
17.244000,165
17.248000,267
17.252000,504
17.256000,526
17.260000,317
17.265000,167
17.268000,270
17.272000,503
17.276000,523
17.280000,315
17.284000,164
17.288000,262
17.292000,496
17.296000,523
17.300000,316
17.304000,165
17.309000,264
17.312000,498
17.316000,520
17.320000,312
17.324000,162
17.328000,264
17.332000,500
17.336000,522
17.340000,311
17.344000,157
17.349000,256
17.353000,496
17.356000,522
17.360000,311
17.364000,156
17.368000,253
17.372000,484
17.376000,508
17.380000,303
17.384000,151
17.388000,249
17.393000,488
17.397000,513
17.400000,303
17.404000,147
17.408000,244
17.412000,481
17.416000,507
17.420000,300
17.424000,146
17.428000,243
17.432000,482
17.437000,511
17.440000,303
17.444000,152
17.448000,254
17.452000,494
17.456000,524
17.460000,316
17.464000,156
17.468000,244
17.472000,485
17.477000,523
17.481000,320
17.484000,162
17.488000,256
17.492000,495
17.496000,528
17.500000,327
17.504000,174
17.508000,267
17.512000,494
17.516000,503
17.521000,267
17.524000,86
17.528000,169
17.532000,427
17.536000,493
17.540000,336
17.544000,229
17.548000,359
17.552000,615
17.556000,640
17.560000,438
17.565000,253
17.568000,316
17.572000,529
17.576000,547
17.580000,332
17.584000,165
17.588000,246
17.592000,474
17.596000,503
17.600000,295
17.605000,134
17.609000,221
17.612000,461
17.616000,499
17.620000,293
17.624000,130
17.628000,213
17.632000,452
17.636000,491
17.640000,288
17.644000,127
17.649000,212
17.653000,451
17.656000,490
17.660000,284
17.664000,121
17.668000,203
17.672000,443
17.676000,483
17.680000,280
17.684000,117
17.688000,202
17.693000,443
17.696000,482
17.700000,273
17.704000,106
17.708000,189
17.712000,428
17.716000,468
17.720000,262
17.724000,94
17.728000,173
17.733000,411
17.737000,452
17.740000,248
17.744000,81
17.748000,158
17.752000,397
17.756000,442
17.760000,239
17.764000,72
17.768000,151
17.772000,392
17.777000,440
17.781000,242
17.784000,78
17.788000,158
17.792000,406
17.796000,465
17.800000,273
17.804000,113
17.808000,198
17.812000,449
17.816000,510
17.821000,318
17.824000,154
17.828000,235
17.832000,480
17.836000,533
17.840000,338
17.844000,173
17.848000,252
17.852000,491
17.856000,542
17.861000,342
17.865000,172
17.868000,245
17.872000,486
17.876000,544
17.880000,347
17.884000,175
17.888000,250
17.892000,492
17.896000,546
17.900000,348
17.905000,177
17.909000,251
17.912000,489
17.916000,543
17.920000,345
17.924000,173
17.928000,245
17.932000,484
17.936000,542
17.940000,346
17.944000,176
17.949000,247
17.952000,486
17.956000,539
17.960000,342
17.964000,172
17.968000,244
17.972000,485
17.976000,542
17.980000,345
17.984000,171
17.989000,239
17.993000,480
17.996000,538
18.000000,342
18.004000,170
18.008000,240
18.012000,482
18.016000,544
18.020000,350
18.024000,175
18.028000,240
18.033000,480
18.037000,542
18.040000,349
18.044000,173
18.048000,236
18.052000,476
18.056000,540
18.060000,347
18.064000,171
18.068000,236
18.072000,475
18.077000,537
18.080000,343
18.084000,169
18.088000,236
18.092000,478
18.096000,542
18.100000,345
18.104000,167
18.108000,230
18.112000,472
18.117000,540
18.121000,348
18.124000,170
18.128000,233
18.132000,473
18.136000,537
18.140000,342
18.144000,164
18.148000,228
18.152000,470
18.156000,540
18.161000,349
18.164000,169
18.168000,225
18.172000,463
18.176000,529
18.180000,338
18.184000,159
18.188000,220
18.192000,460
18.196000,527
18.200000,331
18.205000,150
18.208000,210
18.212000,454
18.216000,526
18.220000,335
18.224000,154
18.228000,211
18.232000,449
18.236000,522
18.240000,337
18.245000,161
18.249000,218
18.252000,460
18.256000,535
18.260000,348
18.264000,169
18.268000,225
18.272000,464
18.276000,539
18.280000,350
18.284000,167
18.289000,221
18.293000,462
18.296000,539
18.300000,352
18.304000,172
18.308000,230
18.312000,475
18.316000,551
18.320000,346
18.324000,129
18.328000,151
18.333000,376
18.336000,458
18.340000,300
18.344000,164
18.348000,272
18.352000,559
18.356000,648
18.360000,488
18.364000,293
18.368000,320
18.373000,537
18.377000,595
18.380000,391
18.384000,190
18.388000,226
18.392000,454
18.396000,523
18.400000,332
18.404000,146
18.408000,192
18.412000,429
18.417000,509
18.420000,328
18.424000,145
18.428000,191
18.432000,428
18.436000,506
18.440000,317
18.444000,132
18.448000,178
18.452000,420
18.456000,505
18.461000,321
18.464000,133
18.468000,176
18.472000,414
18.476000,497
18.480000,313
18.484000,126
18.488000,168
18.492000,405
18.496000,489
18.501000,304
18.505000,118
18.508000,164
18.512000,403
18.516000,486
18.520000,300
18.524000,109
18.528000,147
18.532000,382
18.536000,466
18.540000,285
18.545000,96
18.549000,135
18.552000,370
18.556000,454
18.560000,269
18.564000,80
18.568000,117
18.572000,356
18.576000,445
18.580000,267
18.584000,80
18.589000,124
18.592000,373
18.596000,471
18.600000,300
18.604000,118
18.608000,162
18.612000,405
18.616000,501
18.620000,331
18.624000,154
18.629000,204
18.633000,447
18.636000,540
18.640000,362
18.644000,174
18.648000,217
18.652000,459
18.656000,551
18.660000,374
18.664000,185
18.668000,224
18.673000,460
18.676000,551
18.680000,373
18.684000,184
18.688000,222
18.692000,459
18.696000,555
18.700000,379
18.704000,189
18.708000,224
18.712000,458
18.717000,553
18.720000,378
18.724000,185
18.728000,218
18.732000,456
18.736000,554
18.740000,380
18.744000,187
18.748000,216
18.752000,450
18.757000,549
18.761000,377
18.764000,184
18.768000,218
18.772000,456
18.776000,554
18.780000,378
18.784000,185
18.788000,217
18.792000,452
18.796000,551
18.801000,378
18.804000,184
18.808000,214
18.812000,449
18.816000,549
18.820000,373
18.824000,178
18.828000,209
18.832000,450
18.836000,552
18.840000,378
18.845000,179
18.848000,202
18.852000,439
18.856000,547
18.860000,381
18.864000,189
18.868000,216
18.872000,448
18.876000,547
18.880000,375
18.885000,183
18.889000,212
18.892000,447
18.896000,551
18.900000,380
18.904000,182
18.908000,206
18.912000,441
18.916000,546
18.920000,377
18.924000,180
18.929000,205
18.932000,438
18.936000,544
18.940000,377
18.944000,181
18.948000,202
18.952000,435
18.956000,544
18.960000,377
18.964000,177
18.968000,196
18.973000,430
18.976000,537
18.980000,371
18.984000,176
18.988000,199
18.992000,429
18.996000,536
19.000000,366
19.004000,165
19.008000,186
19.013000,421
19.017000,531
19.020000,363
19.024000,162
19.028000,181
19.032000,416
19.036000,528
19.040000,362
19.044000,164
19.048000,185
19.052000,422
19.057000,537
19.061000,372
19.064000,174
19.068000,189
19.072000,424
19.076000,540
19.080000,376
19.084000,173
19.088000,189
19.092000,426
19.096000,545
19.101000,384
19.104000,183
19.108000,194
19.112000,424
19.116000,545
19.120000,388
19.124000,186
19.128000,184
19.132000,385
19.136000,470
19.141000,284
19.145000,80
19.148000,119
19.152000,404
19.156000,582
19.160000,470
19.164000,295
19.168000,313
19.172000,533
19.176000,631
19.180000,453
19.185000,237
19.188000,237
19.192000,453
19.196000,558
19.200000,388
19.204000,176
19.208000,176
19.212000,398
19.216000,514
19.220000,356
19.224000,155
19.229000,165
19.232000,395
19.236000,512
19.240000,351
19.244000,146
19.248000,150
19.252000,381
19.256000,506
19.260000,352
19.264000,148
19.269000,152
19.273000,378
19.276000,500
19.280000,342
19.284000,137
19.288000,144
19.292000,374
19.296000,498
19.300000,338
19.304000,129
19.308000,133
19.313000,365
19.317000,492
19.320000,335
19.324000,125
19.328000,125
19.332000,352
19.336000,477
19.340000,322
19.344000,116
19.348000,115
19.352000,339
19.357000,463
19.360000,305
19.364000,99
19.368000,100
19.372000,331
19.376000,459
19.380000,304
19.384000,96
19.388000,96
19.392000,326
19.397000,457
19.401000,311
19.404000,114
19.408000,123
19.412000,359
19.416000,497
19.420000,352
19.424000,151
19.428000,154
19.432000,386
19.436000,526
19.441000,381
19.444000,181
19.448000,188
19.452000,419
19.456000,554
19.460000,404
19.464000,197
19.468000,196
19.472000,422
19.476000,555
19.480000,408
19.485000,201
19.488000,197
19.492000,423
19.496000,559
19.500000,413
19.504000,203
19.508000,199
19.512000,425
19.516000,559
19.520000,411
19.525000,200
19.529000,195
19.532000,420
19.536000,552
19.540000,402
19.544000,194
19.548000,192
19.552000,422
19.556000,562
19.560000,415
19.564000,201
19.569000,192
19.573000,415
19.576000,553
19.580000,410
19.584000,204
19.588000,196
19.592000,417
19.596000,553
19.600000,410
19.604000,201
19.608000,193
19.613000,419
19.616000,559
19.620000,413
19.624000,198
19.628000,191
19.632000,417
19.636000,558
19.640000,413
19.644000,199
19.648000,191
19.653000,414
19.657000,559
19.660000,419
19.664000,206
19.668000,192
19.672000,411
19.676000,550
19.680000,412
19.684000,207
19.688000,200
19.692000,423
19.697000,564
19.701000,417
19.704000,206
19.708000,192
19.712000,416
19.716000,562
19.720000,423
19.724000,209
19.728000,191
19.732000,410
19.736000,554
19.741000,417
19.744000,208
19.748000,195
19.752000,414
19.756000,559
19.760000,421
19.764000,206
19.768000,186
19.772000,402
19.776000,548
19.781000,410
19.785000,199
19.788000,187
19.792000,408
19.796000,555
19.800000,413
19.804000,196
19.808000,176
19.812000,394
19.816000,544
19.820000,408
19.825000,192
19.828000,174
19.832000,398
19.836000,552
19.840000,418
19.844000,205
19.848000,184
19.852000,402
19.856000,551
19.860000,420
19.864000,209
19.869000,190
19.872000,411
19.876000,563
19.880000,429
19.884000,212
19.888000,189
19.892000,407
19.896000,557
19.900000,424
19.904000,212
19.909000,195
19.913000,416
19.916000,566
19.920000,421
19.924000,180
19.928000,126
19.932000,324
19.936000,474
19.940000,358
19.944000,182
19.948000,206
19.953000,468
19.956000,649
19.960000,541
19.964000,321
19.968000,285
19.972000,484
19.976000,627
19.980000,488
19.984000,255
19.988000,213
19.992000,415
19.997000,560
20.000000,419
20.004000,193
20.008000,163
20.012000,379
20.016000,534
20.020000,403
20.024000,180
20.028000,148
20.032000,362
20.037000,523
20.041000,398
20.044000,186
20.048000,157
20.052000,368
20.056000,524
20.060000,394
20.064000,175
20.068000,141
20.072000,355
20.076000,518
20.081000,393
20.084000,172
20.088000,136
20.092000,348
20.096000,510
20.100000,383
20.104000,165
20.108000,134
20.112000,347
20.116000,505
20.120000,375
20.125000,154
20.128000,117
20.132000,327
20.136000,485
20.140000,357
20.144000,139
20.148000,107
20.152000,319
20.156000,476
20.160000,351
20.165000,129
20.169000,91
20.172000,306
20.176000,473
20.180000,352
20.184000,134
20.188000,98
20.192000,314
20.196000,485
20.200000,368
20.204000,156
20.209000,128
20.212000,348
20.216000,521
20.220000,405
20.224000,194
20.228000,166
20.232000,383
20.236000,554
20.240000,434
20.244000,207
20.248000,171
20.253000,391
20.256000,568
20.260000,457
20.264000,235
20.268000,194
20.272000,402
20.276000,571
20.280000,455
20.284000,233
20.288000,191
20.293000,401
20.297000,571
20.300000,454
20.304000,233
20.308000,191
20.312000,395
20.316000,558
20.320000,444
20.324000,228
20.328000,191
20.332000,394
20.337000,559
20.341000,446
20.344000,226
20.348000,186
20.352000,396
20.356000,569
20.360000,454
20.364000,228
20.368000,183
20.372000,389
20.376000,560
20.381000,446
20.384000,225
20.388000,180
20.392000,385
20.396000,559
20.400000,450
20.404000,229
20.408000,181
20.412000,381
20.416000,551
20.421000,439
20.425000,223
20.428000,187
20.432000,394
20.436000,564
20.440000,450
20.444000,226
20.448000,181
20.452000,386
20.456000,560
20.460000,450
20.465000,227
20.469000,178
20.472000,379
20.476000,555
20.480000,448
20.484000,225
20.488000,174
20.492000,375
20.496000,552
20.500000,442
20.504000,220
20.509000,176
20.512000,380
20.516000,557
20.520000,450
20.524000,225
20.528000,174
20.532000,374
20.536000,551
20.540000,444
20.544000,222
20.549000,173
20.553000,373
20.556000,548
20.560000,441
20.564000,219
20.568000,170
20.572000,370
20.576000,544
20.580000,437
20.584000,215
20.588000,163
20.593000,364
20.597000,541
20.600000,437
20.604000,209
20.608000,157
20.612000,363
20.616000,547
20.620000,443
20.624000,215
20.628000,157
20.632000,354
20.637000,530
20.640000,424
20.644000,203
20.648000,152
20.652000,354
20.656000,535
20.660000,432
20.664000,210
20.668000,156
20.672000,357
20.677000,535
20.681000,433
20.684000,217
20.688000,169
20.692000,369
20.696000,549
20.700000,443
20.704000,216
20.708000,159
20.712000,359
20.716000,545
20.721000,444
20.725000,219
20.728000,166
20.732000,371
20.736000,562
20.740000,461
20.744000,220
20.748000,133
20.752000,302
20.756000,468
20.760000,369
20.765000,166
20.768000,143
20.772000,391
20.776000,627
20.780000,567
20.784000,349
20.788000,276
20.792000,451
20.796000,620
20.800000,512
20.805000,271
20.809000,192
20.812000,371
20.816000,542
20.820000,433
20.824000,197
20.828000,131
20.832000,325
20.836000,515
20.840000,422
20.844000,197
20.849000,127
20.853000,317
20.856000,506
20.860000,416
20.864000,193
20.868000,127
20.872000,319
20.876000,506
20.880000,409
20.884000,183
20.888000,116
20.893000,305
20.896000,495
20.900000,407
20.904000,187
20.908000,120
20.912000,308
20.916000,493
20.920000,399
20.924000,174
20.928000,107
20.933000,295
20.937000,483
20.940000,389
20.944000,160
20.948000,89
20.952000,282
20.956000,475
20.960000,384
20.964000,154
20.968000,79
20.972000,264
20.977000,451
20.981000,360
20.984000,134
20.988000,64
20.992000,253
20.996000,449
21.000000,362
21.004000,137
21.008000,67
21.012000,261
21.016000,462
21.021000,379
21.024000,158
21.028000,92
21.032000,289
21.036000,492
21.040000,413
21.044000,197
21.048000,134
21.052000,329
21.056000,527
21.061000,442
21.065000,218
21.068000,155
21.072000,350
21.076000,549
21.080000,464
21.084000,235
21.088000,164
21.092000,353
21.096000,549
21.100000,465
21.105000,238
21.108000,166
21.112000,355
21.116000,552
21.120000,469
21.124000,241
21.128000,168
21.132000,357
21.136000,553
21.140000,469
21.144000,242
21.149000,170
21.152000,355
21.156000,549
21.160000,467
21.164000,240
21.168000,167
21.172000,354
21.176000,548
21.180000,464
21.184000,237
21.189000,162
21.193000,347
21.196000,543
21.200000,465
21.204000,239
21.208000,161
21.212000,347
21.216000,549
21.220000,473
21.224000,247
21.228000,170
21.233000,352
21.236000,547
21.240000,466
21.244000,239
21.248000,163
21.252000,347
21.256000,546
21.260000,469
21.264000,244
21.268000,166
21.272000,346
21.277000,544
21.280000,470
21.284000,246
21.288000,169
21.292000,347
21.296000,538
21.300000,458
21.304000,236
21.308000,165
21.312000,352
21.317000,554
21.321000,477
21.324000,247
21.328000,164
21.332000,341
21.336000,542
21.340000,467
21.344000,241
21.348000,160
21.352000,338
21.356000,539
21.361000,466
21.364000,240
21.368000,159
21.372000,339
21.376000,541
21.380000,468
21.384000,240
21.388000,159
21.392000,337
21.396000,537
21.400000,462
21.405000,235
21.408000,149
21.412000,329
21.416000,537
21.420000,465
21.424000,239
21.428000,160
21.432000,341
21.436000,542
21.440000,468
21.445000,239
21.449000,154
21.452000,330
21.456000,531
21.460000,457
21.464000,228
21.468000,147
21.472000,326
21.476000,529
21.480000,456
21.484000,227
21.489000,141
21.493000,317
21.496000,519
21.500000,448
21.504000,225
21.508000,146
21.512000,325
21.516000,528
21.520000,458
21.524000,234
21.528000,151
21.533000,326
21.536000,531
21.540000,465
21.544000,244
21.548000,164
21.552000,340
21.556000,540
21.560000,468
21.564000,242
21.568000,157
21.573000,330
21.577000,537
21.580000,474
21.584000,256
21.588000,177
21.592000,352
21.596000,543
21.600000,449
21.604000,192
21.608000,81
21.612000,252
21.617000,480
21.621000,449
21.624000,277
21.628000,244
21.632000,456
21.636000,651
21.640000,596
21.644000,361
21.648000,245
21.652000,396
21.656000,587
21.661000,508
21.664000,262
21.668000,157
21.672000,318
21.676000,519
21.680000,452
21.684000,225
21.688000,135
21.692000,305
21.696000,511
21.701000,446
21.705000,218
21.708000,125
21.712000,295
21.716000,502
21.720000,439
21.724000,215
21.728000,122
21.732000,289
21.736000,496
21.740000,436
21.745000,208
21.749000,116
21.752000,287
21.756000,497
21.760000,436
21.764000,209
21.768000,112
21.772000,278
21.776000,487
21.780000,424
21.784000,197
21.789000,102
21.792000,269
21.796000,476
21.800000,411
21.804000,184
21.808000,88
21.812000,253
21.816000,461
21.820000,400
21.824000,174
21.829000,76
21.833000,240
21.836000,448
21.840000,384
21.844000,154
21.848000,54
21.852000,224
21.856000,442
21.860000,388
21.864000,164
21.868000,70
21.873000,241
21.877000,460
21.880000,409
21.884000,189
21.888000,99
21.892000,273
21.896000,492
21.900000,447
21.904000,235
21.908000,148
21.912000,317
21.917000,526
21.920000,474
21.924000,256
21.928000,165
21.932000,332
21.936000,543
21.940000,486
21.944000,260
21.948000,166
21.952000,332
21.957000,545
21.961000,493
21.964000,266
21.968000,168
21.972000,330
21.976000,541
21.980000,486
21.984000,261
21.988000,165
21.992000,329
21.996000,539
22.001000,484
22.004000,257
22.008000,162
22.012000,328
22.016000,542
22.020000,490
22.024000,261
22.028000,157
22.032000,319
22.036000,537
22.040000,489
22.045000,262
22.048000,164
22.052000,327
22.056000,542
22.060000,491
22.064000,263
22.068000,160
22.072000,323
22.076000,540
22.080000,492
22.085000,265
22.089000,163
22.092000,325
22.096000,539
22.100000,490
22.104000,263
22.108000,159
22.112000,320
22.116000,537
22.120000,489
22.124000,262
22.129000,160
22.132000,323
22.136000,540
22.140000,492
22.144000,261
22.148000,154
22.152000,313
22.156000,532
22.160000,491
22.164000,267
22.168000,162
22.173000,319
22.176000,534
22.180000,489
22.184000,264
22.188000,159
22.192000,316
22.196000,531
22.200000,486
22.204000,260
22.208000,156
22.213000,312
22.217000,525
22.220000,480
22.224000,259
22.228000,158
22.232000,315
22.236000,531
22.240000,487
22.244000,261
22.248000,155
22.252000,309
22.257000,522
22.261000,477
22.264000,256
22.268000,152
22.272000,309
22.276000,525
22.280000,481
22.284000,260
22.288000,158
22.292000,316
22.296000,532
22.301000,486
22.304000,258
22.308000,151
22.312000,306
22.316000,522
22.320000,477
22.324000,250
22.328000,141
22.332000,296
22.336000,515
22.341000,477
22.345000,251
22.348000,141
22.352000,291
22.356000,507
22.360000,465
22.364000,242
22.368000,133
22.372000,285
22.376000,506
22.380000,469
22.385000,248
22.388000,140
22.392000,293
22.396000,513
22.400000,475
22.404000,255
22.408000,148
22.412000,302
22.416000,520
22.420000,483
22.424000,262
22.429000,154
22.432000,306
22.436000,525
22.440000,486
22.444000,260
22.448000,149
22.452000,305
22.456000,533
22.460000,500
22.464000,271
22.469000,139
22.473000,258
22.476000,448
22.480000,394
22.484000,177
22.488000,96
22.492000,297
22.496000,575
22.500000,588
22.504000,390
22.508000,280
22.513000,418
22.517000,616
22.520000,560
22.524000,315
22.528000,190
22.532000,329
22.536000,539
22.540000,492
22.544000,257
22.548000,134
22.552000,278
22.557000,498
22.560000,464
22.564000,237
22.568000,119
22.572000,267
22.576000,490
22.580000,459
22.584000,236
22.588000,119
22.592000,267
22.597000,489
22.601000,456
22.604000,230
22.608000,113
22.612000,259
22.616000,482
22.620000,450
22.624000,226
22.628000,109
22.632000,255
22.636000,476
22.641000,438
22.644000,212
22.648000,100
22.652000,249
22.656000,471
22.660000,437
22.664000,212
22.668000,96
22.672000,239
22.676000,459
22.680000,424
22.685000,197
22.688000,75
22.692000,216
22.696000,437
22.700000,405
22.704000,181
22.708000,63
22.712000,208
22.716000,433
22.720000,400
22.725000,176
22.729000,58
22.732000,203
22.736000,434
22.740000,414
22.744000,199
22.748000,87
22.752000,236
22.756000,468
22.760000,445
22.764000,229
22.769000,120
22.773000,276
22.776000,510
22.780000,490
22.784000,270
22.788000,155
22.792000,300
22.796000,526
22.800000,502
22.804000,280
22.808000,163
22.813000,308
22.816000,537
22.820000,512
22.824000,288
22.828000,166
22.832000,308
22.836000,532
22.840000,507
22.844000,285
22.848000,166
22.853000,305
22.857000,528
22.860000,505
22.864000,281
22.868000,163
22.872000,308
22.876000,537
22.880000,514
22.884000,287
22.888000,161
22.892000,299
22.897000,527
22.901000,506
22.904000,281
22.908000,158
22.912000,298
22.916000,527
22.920000,508
22.924000,286
22.928000,162
22.932000,300
22.936000,523
22.941000,502
22.944000,282
22.948000,162
22.952000,302
22.956000,525
22.960000,502
22.964000,281
22.968000,159
22.972000,298
22.976000,526
22.981000,508
22.985000,286
22.988000,162
22.992000,297
22.996000,524
23.000000,505
23.004000,283
23.008000,157
23.012000,292
23.016000,519
23.020000,498
23.025000,279
23.028000,157
23.032000,294
23.036000,521
23.040000,502
23.044000,282
23.048000,156
23.052000,291
23.056000,519
23.060000,503
23.064000,282
23.069000,156
23.072000,289
23.076000,516
23.080000,498
23.084000,275
23.088000,149
23.092000,286
23.096000,518
23.100000,505
23.104000,284
23.109000,156
23.113000,288
23.116000,516
23.120000,499
23.124000,277
23.128000,148
23.132000,280
23.136000,510
23.140000,498
23.144000,279
23.148000,151
23.153000,282
23.156000,507
23.160000,490
23.164000,271
23.168000,144
23.172000,275
23.176000,507
23.180000,494
23.184000,270
23.188000,141
23.192000,272
23.197000,501
23.200000,488
23.204000,267
23.208000,136
23.212000,265
23.216000,498
23.220000,487
23.224000,268
23.228000,140
23.232000,274
23.237000,505
23.241000,495
23.244000,276
23.248000,148
23.252000,281
23.256000,514
23.260000,503
23.264000,283
23.268000,156
23.272000,286
23.276000,514
23.281000,504
23.284000,284
23.288000,156
23.292000,288
23.296000,519
23.300000,509
23.304000,293
23.308000,167
23.312000,295
23.316000,513
23.320000,479
23.325000,234
23.328000,83
23.332000,199
23.336000,443
23.340000,476
23.344000,309
23.348000,226
23.352000,392
23.356000,638
23.360000,624
23.365000,404
23.369000,250
23.372000,355
23.376000,569
23.380000,550
23.384000,318
23.388000,174
23.392000,294
23.396000,518
23.400000,499
23.404000,271
23.409000,137
23.412000,260
23.416000,490
23.420000,484
23.424000,266
23.428000,134
23.432000,258
23.436000,488
23.440000,480
23.444000,258
23.448000,121
23.453000,247
23.456000,482
23.460000,477
23.464000,258
23.468000,125
23.472000,250
23.476000,482
23.480000,474
23.484000,251
23.488000,115
23.493000,239
23.497000,473
23.500000,469
23.504000,249
23.508000,112
23.512000,233
23.516000,460
23.520000,453
23.524000,231
23.528000,90
23.532000,212
23.537000,450
23.540000,448
23.544000,226
23.548000,82
23.552000,199
23.556000,432
23.560000,428
23.564000,210
23.568000,70
23.572000,192
23.576000,429
23.581000,431
23.584000,219
23.588000,85
23.592000,207
23.596000,441
23.600000,448
23.604000,244
23.608000,120
23.612000,251
23.616000,490
23.621000,494
23.625000,282
23.628000,150
23.632000,273
23.636000,508
23.640000,515
23.644000,305
23.648000,172
23.652000,295
23.656000,527
23.660000,525
23.665000,307
23.668000,171
23.672000,294
23.676000,530
23.680000,533
23.684000,316
23.688000,176
23.692000,293
23.696000,525
23.700000,528
23.704000,315
23.709000,178
23.712000,298
23.716000,530
23.720000,530
23.724000,311
23.728000,169
23.732000,288
23.736000,520
23.740000,524
23.744000,307
23.749000,170
23.753000,290
23.756000,523
23.760000,527
23.764000,312
23.768000,172
23.772000,290
23.776000,522
23.780000,523
23.784000,303
23.788000,163
23.793000,285
23.797000,522
23.800000,527
23.804000,308
23.808000,162
23.812000,281
23.816000,523
23.820000,533
23.824000,314
23.828000,168
23.832000,283
23.837000,519
23.840000,527
23.844000,311
23.848000,168
23.852000,281
23.856000,514
23.860000,520
23.864000,305
23.868000,167
23.872000,284
23.877000,519
23.881000,525
23.884000,308
23.888000,167
23.892000,283
23.896000,518
23.900000,523
23.904000,304
23.908000,157
23.912000,273
23.916000,513
23.921000,526
23.924000,310
23.928000,166
23.932000,279
23.936000,513
23.940000,521
23.944000,307
23.948000,164
23.952000,278
23.956000,513
23.960000,520
23.965000,303
23.968000,158
23.972000,272
23.976000,506
23.980000,516
23.984000,303
23.988000,161
23.992000,275
23.996000,509
24.000000,515
24.005000,299
24.009000,156
24.012000,270
24.016000,503
24.020000,509
24.024000,292
24.028000,153
24.032000,268
24.036000,502
24.040000,512
24.044000,297
24.049000,151
24.053000,260
24.056000,494
24.060000,503
24.064000,288
24.068000,143
24.072000,255
24.076000,490
24.080000,501
24.084000,289
24.088000,146
24.093000,256
24.096000,494
24.100000,507
24.104000,297
24.108000,157
24.112000,269
24.116000,503
24.120000,516
24.124000,306
24.128000,162
24.133000,271
24.137000,504
24.140000,514
24.144000,299
24.148000,152
24.152000,264
24.156000,506
24.160000,527
24.164000,317
24.168000,166
24.172000,256
24.177000,463
24.181000,445
24.184000,216
24.188000,75
24.192000,215
24.196000,505
24.200000,577
24.204000,406
24.208000,279
24.212000,389
24.216000,612
24.221000,608
24.224000,376
24.228000,212
24.232000,305
24.236000,524
24.240000,523
24.244000,296
24.248000,139
24.252000,242
24.256000,477
24.261000,493
24.265000,277
24.268000,124
24.272000,228
24.276000,466
24.280000,483
24.284000,273
24.288000,125
24.292000,233
24.296000,467
24.300000,478
24.305000,264
24.308000,117
24.312000,226
24.316000,465
24.320000,480
24.324000,265
24.328000,115
24.332000,221
24.336000,459
24.340000,475
24.344000,259
24.349000,107
24.352000,209
24.356000,447
24.360000,465
24.364000,253
24.368000,100
24.372000,201
24.376000,435
24.380000,449
24.384000,230
24.389000,77
24.393000,182
24.396000,424
24.400000,442
24.404000,227
24.408000,68
24.412000,168
24.416000,409
24.420000,430
24.424000,217
24.428000,62
24.433000,167
24.437000,412
24.440000,436
24.444000,228
24.448000,78
24.452000,186
24.456000,437
24.460000,467
24.464000,262
24.468000,116
24.472000,226
24.477000,473
24.480000,502
24.484000,296
24.488000,149
24.492000,256
24.496000,499
24.500000,525
24.504000,316
24.508000,162
24.512000,265
24.517000,506
24.521000,531
24.524000,322
24.528000,170
24.532000,272
24.536000,510
24.540000,532
24.544000,322
24.548000,171
24.552000,272
24.556000,507
24.561000,531
24.564000,322
24.568000,170
24.572000,270
24.576000,506
24.580000,528
24.584000,317
24.588000,166
24.592000,268
24.596000,504
24.600000,525
24.605000,312
24.608000,162
24.612000,268
24.616000,510
24.620000,533
24.624000,320
24.628000,164
24.632000,264
24.636000,502
24.640000,528
24.645000,319
24.649000,167
24.652000,266
24.656000,503
24.660000,529
24.664000,321
24.668000,166
24.672000,263
24.676000,502
24.680000,529
24.684000,319
24.689000,164
24.693000,263
24.696000,501
24.700000,529
24.704000,320
24.708000,167
24.712000,265
24.716000,499
24.720000,525
24.724000,318
24.728000,163
24.733000,263
24.736000,502
24.740000,531
24.744000,320
24.748000,162
24.752000,260
24.756000,498
24.760000,522
24.764000,310
24.768000,156
24.773000,258
24.777000,500
24.780000,529
24.784000,318
24.788000,162
24.792000,260
24.796000,498
24.800000,525
24.804000,316
24.808000,159
24.812000,256
24.817000,492
24.820000,519
24.824000,313
24.828000,160
24.832000,258
24.836000,496
24.840000,522
24.844000,311
24.848000,155
24.852000,254
24.856000,495
24.861000,524
24.864000,314
24.868000,157
24.872000,248
24.876000,482
24.880000,510
24.884000,307
24.888000,155
24.892000,249
24.896000,485
24.901000,515
24.905000,309
24.908000,150
24.912000,240
24.916000,474
24.920000,501
24.924000,290
24.928000,136
24.932000,236
24.936000,479
24.940000,511
24.945000,303
24.948000,145
24.952000,241
24.956000,482
24.960000,515
24.964000,311
24.968000,158
24.972000,252
24.976000,491
24.980000,520
24.984000,309
24.989000,154
24.992000,250
24.996000,489
25.000000,523
25.004000,317
25.008000,162
25.012000,258
25.016000,501
25.020000,536
25.024000,327
25.029000,157
25.033000,225
25.036000,437
25.040000,447
25.044000,236
25.048000,99
25.052000,229
25.056000,524
25.060000,610
25.064000,439
25.068000,288
25.073000,369
25.076000,589
25.080000,606
25.084000,382
25.088000,203
25.092000,279
25.096000,506
25.100000,527
25.104000,303
25.108000,131
25.112000,221
25.117000,465
25.120000,502
25.124000,291
25.128000,129
25.132000,220
25.136000,458
25.140000,490
25.144000,284
25.148000,126
25.152000,218
25.157000,457
25.161000,488
25.164000,279
25.168000,118
25.172000,209
25.176000,450
25.180000,485
25.184000,278
25.188000,114
25.192000,201
25.196000,442
25.201000,478
25.204000,269
25.208000,106
25.212000,198
25.216000,440
25.220000,473
25.224000,262
25.228000,97
25.232000,185
25.236000,425
25.240000,458
25.245000,246
25.248000,80
25.252000,168
25.256000,409
25.260000,440
25.264000,226
25.268000,61
25.272000,155
25.276000,402
25.280000,440
25.285000,229
25.289000,65
25.292000,154
25.296000,400
25.300000,441
25.304000,239
25.308000,84
25.312000,179
25.316000,428
25.320000,472
25.324000,271
25.329000,116
25.332000,211
25.336000,462
25.340000,513
25.344000,318
25.348000,161
25.352000,249
25.356000,491
25.360000,532
25.364000,330
25.368000,169
25.373000,258
25.376000,498
25.380000,537
25.384000,329
25.388000,166
25.392000,254
25.396000,495
25.400000,536
25.404000,333
25.408000,168
25.413000,255
25.417000,497
25.420000,538
25.424000,332
25.428000,169
25.432000,257
25.436000,498
25.440000,536
25.444000,329
25.448000,168
25.452000,255
25.457000,494
25.461000,534
25.464000,331
25.468000,167
25.472000,254
25.476000,496
25.480000,538
25.484000,331
25.488000,165
25.492000,253
25.496000,496
25.501000,536
25.504000,328
25.508000,163
25.512000,251
25.516000,495
25.520000,535
25.524000,331
25.528000,166
25.532000,250
25.536000,490
25.541000,529
25.545000,325
25.548000,166
25.552000,257
25.556000,497
25.560000,534
25.564000,329
25.568000,168
25.572000,255
25.576000,495
25.580000,535
25.585000,328
25.589000,164
25.592000,249
25.596000,486
25.600000,526
25.604000,326
25.608000,166
25.612000,252
25.616000,492
25.620000,533
25.624000,329
25.629000,162
25.632000,246
25.636000,486
25.640000,528
25.644000,326
25.648000,163
25.652000,249
25.656000,488
25.660000,528
25.664000,326
25.669000,161
25.673000,243
25.676000,483
25.680000,526
25.684000,323
25.688000,160
25.692000,245
25.696000,487
25.700000,529
25.704000,323
25.708000,156
25.713000,238
25.717000,480
25.720000,525
25.724000,323
25.728000,158
25.732000,240
25.736000,478
25.740000,519
25.744000,311
25.748000,144
25.752000,233
25.757000,478
25.760000,520
25.764000,313
25.768000,143
25.772000,225
25.776000,468
25.780000,513
25.784000,310
25.788000,144
25.792000,227
25.797000,466
25.801000,507
25.804000,308
25.808000,148
25.812000,234
25.816000,478
25.820000,527
25.824000,327
25.828000,161
25.832000,241
25.836000,481
25.841000,525
25.845000,322
25.848000,157
25.852000,238
25.856000,478
25.860000,524
25.864000,326
25.868000,166
25.872000,251
25.876000,488
25.880000,526
25.885000,303
25.888000,109
25.892000,163
25.896000,390
25.900000,443
25.904000,277
25.908000,171
25.912000,314
25.916000,599
25.920000,646
25.925000,462
25.929000,278
25.932000,334
25.936000,549
25.940000,576
25.944000,356
25.948000,177
25.952000,249
25.956000,478
25.960000,511
25.964000,302
25.969000,131
25.973000,210
25.976000,450
25.980000,495
25.984000,294
25.988000,126
25.992000,203
25.996000,445
26.000000,493
26.004000,291
26.008000,122
26.013000,200
26.016000,440
26.020000,486
26.024000,282
26.028000,114
26.032000,193
26.036000,434
26.040000,481
26.044000,279
26.048000,111
26.053000,185
26.057000,424
26.060000,470
26.064000,272
26.068000,110
26.072000,188
26.076000,426
26.080000,469
26.084000,263
26.088000,91
26.092000,166
26.097000,408
26.100000,454
26.104000,251
26.108000,78
26.112000,153
26.116000,392
26.120000,437
26.124000,235
26.128000,66
26.132000,142
26.136000,386
26.141000,436
26.144000,237
26.148000,71
26.152000,152
26.156000,399
26.160000,452
26.164000,257
26.168000,96
26.172000,180
26.176000,432
26.181000,494
26.185000,303
26.188000,139
26.192000,220
26.196000,468
26.200000,527
26.204000,335
26.208000,172
26.212000,252
26.216000,493
26.220000,541
26.225000,341
26.229000,173
26.232000,254
26.236000,496
26.240000,545
26.244000,343
26.248000,174
26.252000,253
26.256000,496
26.260000,545
26.264000,344
26.269000,175
26.272000,252
26.276000,493
26.280000,543
26.284000,341
26.288000,171
26.292000,249
26.296000,490
26.300000,540
26.304000,339
26.309000,168
26.313000,246
26.316000,488
26.320000,538
26.324000,338
26.328000,170
26.332000,248
26.336000,490
26.340000,540
26.344000,340
26.348000,166
26.353000,244
26.357000,490
26.360000,543
26.364000,341
26.368000,170
26.372000,248
26.376000,491
26.380000,541
26.384000,336
26.388000,164
26.392000,242
26.397000,487
26.400000,542
26.404000,344
26.408000,174
26.412000,249
26.416000,488
26.420000,538
26.424000,336
26.428000,168
26.432000,245
26.437000,487
26.441000,534
26.444000,330
26.448000,160
26.452000,240
26.456000,488
26.460000,543
26.464000,343
26.468000,170
26.472000,244
26.476000,485
26.481000,536
26.484000,337
26.488000,167
26.492000,242
26.496000,484
26.500000,537
26.504000,337
26.508000,164
26.512000,238
26.516000,479
26.520000,533
26.525000,333
26.528000,163
26.532000,239
26.536000,479
26.540000,529
26.544000,326
26.548000,157
26.552000,232
26.556000,475
26.560000,528
26.565000,324
26.569000,151
26.572000,226
26.576000,468
26.580000,521
26.584000,319
26.588000,147
26.592000,221
26.596000,461
26.600000,511
26.604000,313
26.609000,150
26.613000,230
26.616000,471
26.620000,523
26.624000,326
26.628000,157
26.632000,234
26.636000,479
26.640000,534
26.644000,332
26.648000,161
26.653000,235
26.656000,479
26.660000,535
26.664000,336
26.668000,164
26.672000,236
26.676000,474
26.680000,529
26.684000,337
26.688000,175
26.693000,252
26.697000,490
26.700000,529
26.704000,303
26.708000,101
26.712000,152
26.716000,387
26.720000,460
26.724000,307
26.728000,190
26.732000,311
26.737000,587
26.740000,645
26.744000,455
26.748000,265
26.752000,318
26.756000,544
26.760000,590
26.764000,378
26.768000,190
26.772000,245
26.776000,473
26.781000,520
26.784000,316
26.788000,142
26.792000,213
26.796000,455
26.800000,508
26.804000,305
26.808000,133
26.812000,208
26.816000,453
26.821000,508
26.825000,307
26.828000,133
26.832000,202
26.836000,442
26.840000,499
26.844000,300
26.848000,128
26.852000,199
26.856000,440
26.860000,495
26.865000,297
26.868000,124
26.872000,193
26.876000,434
26.880000,488
26.884000,287
26.888000,111
26.892000,180
26.896000,421
26.900000,475
26.904000,277
26.909000,104
26.912000,173
26.916000,412
26.920000,465
26.924000,266
26.928000,91
26.932000,157
26.936000,397
26.940000,454
26.944000,257
26.949000,82
26.953000,153
26.956000,396
26.960000,453
26.964000,257
26.968000,87
26.972000,161
26.976000,409
26.980000,472
26.984000,281
26.988000,116
26.993000,194
26.997000,446
27.000000,511
27.004000,320
27.008000,151
27.012000,227
27.016000,473
27.020000,535
27.024000,340
27.028000,166
27.032000,240
27.037000,488
27.040000,550
27.044000,353
27.048000,180
27.052000,253
27.056000,496
27.060000,554
27.064000,355
27.068000,181
27.072000,254
27.077000,497
27.081000,555
27.084000,356
27.088000,183
27.092000,254
27.096000,493
27.100000,550
27.104000,354
27.108000,181
27.112000,251
27.116000,492
27.121000,549
27.124000,351
27.128000,177
27.132000,248
27.136000,490
27.140000,549
27.144000,350
27.148000,175
27.152000,245
27.156000,488
27.160000,547
27.165000,349
27.168000,172
27.172000,242
27.176000,488
27.180000,551
27.184000,354
27.188000,176
27.192000,237
27.196000,475
27.200000,542
27.205000,354
27.209000,186
27.212000,255
27.216000,493
27.220000,551
27.224000,352
27.228000,176
27.232000,246
27.236000,487
27.240000,546
27.244000,349
27.249000,174
27.253000,243
27.256000,485
27.260000,546
27.264000,350
27.268000,173
27.272000,240
27.276000,483
27.280000,545
27.284000,350
27.288000,175
27.293000,242
27.296000,483
27.300000,545
27.304000,349
27.308000,173
27.312000,240
27.316000,482
27.320000,543
27.324000,347
27.328000,172
27.333000,239
27.337000,480
27.340000,539
27.344000,345
27.348000,172
27.352000,240
27.356000,478
27.360000,535
27.364000,337
27.368000,166
27.372000,239
27.377000,481
27.381000,540
27.384000,340
27.388000,159
27.392000,225
27.396000,470
27.400000,534
27.404000,337
27.408000,156
27.412000,221
27.416000,464
27.421000,530
27.424000,337
27.428000,161
27.432000,228
27.436000,471
27.440000,536
27.444000,342
27.448000,167
27.452000,236
27.456000,479
27.461000,541
27.465000,345
27.468000,170
27.472000,236
27.476000,476
27.480000,540
27.484000,345
27.488000,168
27.492000,236
27.496000,482
27.500000,553
27.505000,363
27.508000,188
27.512000,243
27.516000,462
27.520000,496
27.524000,277
27.528000,86
27.532000,158
27.536000,433
27.540000,546
27.544000,405
27.549000,273
27.552000,362
27.556000,604
27.560000,642
27.564000,439
27.568000,243
27.572000,293
27.576000,516
27.580000,563
27.584000,353
27.589000,165
27.593000,220
27.596000,454
27.600000,513
27.604000,319
27.608000,146
27.612000,211
27.616000,449
27.620000,509
27.624000,311
27.628000,132
27.633000,196
27.636000,439
27.640000,505
27.644000,310
27.648000,133
27.652000,197
27.656000,436
27.660000,498
27.664000,305
27.668000,130
27.672000,194
27.677000,433
27.680000,493
27.684000,294
27.688000,113
27.692000,178
27.696000,423
27.700000,487
27.704000,290
27.708000,111
27.712000,172
27.717000,409
27.721000,468
27.724000,272
27.728000,95
27.732000,157
27.736000,396
27.740000,454
27.744000,257
27.748000,79
27.752000,142
27.756000,385
27.761000,448
27.764000,251
27.768000,71
27.772000,131
27.776000,375
27.780000,442
27.784000,256
27.788000,86
27.792000,154
27.796000,401
27.800000,473
27.805000,288
27.808000,119
27.812000,191
27.816000,442
27.820000,516
27.824000,330
27.828000,159
27.832000,228
27.836000,471
27.840000,536
27.845000,344
27.849000,171
27.852000,237
27.856000,479
27.860000,546
27.864000,353
27.868000,176
27.872000,241
27.876000,483
27.880000,549
27.884000,353
27.889000,175
27.893000,237
27.896000,476
27.900000,542
27.904000,352
27.908000,177
27.912000,240
27.916000,479
27.920000,543
27.924000,349
27.928000,174
27.933000,238
27.936000,478
27.940000,543
27.944000,353
27.948000,175
27.952000,237
27.956000,477
27.960000,544
27.964000,352
27.968000,174
27.973000,237
27.977000,480
27.980000,546
27.984000,351
27.988000,172
27.992000,234
27.996000,476
28.000000,541
28.004000,345
28.008000,167
28.012000,234
28.017000,479
28.021000,548
28.024000,355
28.028000,175
28.032000,235
28.036000,476
28.040000,542
28.044000,350
28.048000,172
28.052000,234
28.056000,473
28.061000,536
28.064000,342
28.068000,168
28.072000,233
28.076000,477
28.080000,544
28.084000,350
28.088000,171
28.092000,235
28.096000,476
28.101000,539
28.105000,342
28.108000,161
28.112000,225
28.116000,472
28.120000,544
28.124000,350
28.128000,171
28.132000,232
28.136000,474
28.140000,540
28.145000,347
28.149000,168
28.152000,230
28.156000,471
28.160000,537
28.164000,342
28.168000,164
28.172000,226
28.176000,466
28.180000,534
28.184000,342
28.189000,165
28.192000,226
28.196000,466
28.200000,533
28.204000,337
28.208000,154
28.212000,211
28.216000,453
28.220000,524
28.224000,334
28.229000,156
28.233000,216
28.236000,454
28.240000,519
28.244000,325
28.248000,147
28.252000,211
28.256000,455
28.260000,525
28.264000,334
28.268000,155
28.273000,217
28.277000,462
28.280000,534
28.284000,343
28.288000,162
28.292000,220
28.296000,463
28.300000,535
28.304000,345
28.308000,164
28.312000,220
28.317000,459
28.320000,530
28.324000,346
28.328000,178
28.332000,245
28.336000,486
28.340000,545
28.344000,330
28.348000,120
28.352000,151
28.357000,383
28.361000,463
28.364000,304
28.368000,174
28.372000,288
28.376000,573
28.380000,647
28.384000,476
28.388000,280
28.392000,313
28.396000,535
28.401000,590
28.404000,381
28.408000,183
28.412000,227
28.416000,457
28.420000,517
28.424000,321
28.428000,143
28.432000,204
28.436000,445
28.440000,510
28.445000,314
28.448000,132
28.452000,191
28.456000,432
28.460000,501
28.464000,308
28.468000,128
28.472000,191
28.476000,433
28.480000,498
28.485000,303
28.489000,123
28.492000,183
28.496000,425
28.500000,491
28.504000,298
28.508000,114
28.512000,175
28.516000,422
28.520000,494
28.524000,300
28.529000,115
28.533000,172
28.536000,411
28.540000,476
28.544000,281
28.548000,100
28.552000,157
28.556000,395
28.560000,459
28.564000,264
28.568000,83
28.573000,143
28.576000,384
28.580000,449
28.584000,255
28.588000,74
28.592000,131
28.596000,372
28.600000,434
28.604000,240
28.608000,65
28.613000,135
28.617000,392
28.620000,467
28.624000,278
28.628000,104
28.632000,173
28.636000,424
28.640000,498
28.644000,314
28.648000,144
28.652000,211
28.657000,458
28.661000,529
28.664000,341
28.668000,167
28.672000,232
28.676000,476
28.680000,545
28.684000,355
28.688000,177
28.692000,237
28.696000,478
28.701000,546
28.704000,351
28.708000,170
28.712000,232
28.716000,472
28.720000,542
28.724000,355
28.728000,180
28.732000,242
28.736000,481
28.741000,546
28.745000,351
28.748000,172
28.752000,233
28.756000,475
28.760000,541
28.764000,347
28.768000,169
28.772000,233
28.776000,476
28.780000,544
28.785000,351
28.788000,170
28.792000,232
28.796000,475
28.800000,545
28.804000,352
28.808000,171
28.812000,232
28.816000,474
28.820000,542
28.824000,349
28.829000,170
28.832000,231
28.836000,471
28.840000,536
28.844000,342
28.848000,162
28.852000,229
28.856000,475
28.860000,545
28.864000,352
28.869000,170
28.873000,229
28.876000,472
28.880000,540
28.884000,348
28.888000,169
28.892000,230
28.896000,471
28.900000,537
28.904000,342
28.908000,163
28.913000,226
28.917000,468
28.920000,534
28.924000,340
28.928000,162
28.932000,227
28.936000,471
28.940000,537
28.944000,343
28.948000,165
28.952000,226
28.957000,466
28.960000,534
28.964000,343
28.968000,163
28.972000,224
28.976000,467
28.980000,535
28.984000,342
28.988000,163
28.992000,224
28.997000,466
29.001000,534
29.004000,341
29.008000,161
29.012000,221
29.016000,459
29.020000,524
29.024000,330
29.028000,149
29.032000,206
29.036000,451
29.041000,524
29.044000,333
29.048000,152
29.052000,208
29.056000,447
29.060000,516
29.064000,323
29.068000,143
29.072000,202
29.076000,443
29.080000,516
29.085000,329
29.088000,155
29.092000,216
29.096000,456
29.100000,525
29.104000,334
29.108000,158
29.112000,221
29.116000,464
29.120000,531
29.125000,337
29.129000,158
29.132000,217
29.136000,459
29.140000,530
29.144000,341
29.148000,163
29.152000,224
29.156000,469
29.160000,542
29.164000,350
29.169000,167
29.173000,211
29.176000,422
29.180000,460
29.184000,246
29.188000,64
29.192000,151
29.196000,446
29.200000,573
29.204000,427
29.208000,278
29.213000,350
29.216000,585
29.220000,633
29.224000,421
29.228000,221
29.232000,266
29.236000,493
29.240000,549
29.244000,345
29.248000,156
29.253000,207
29.257000,442
29.260000,507
29.264000,314
29.268000,134
29.272000,193
29.276000,434
29.280000,502
29.284000,308
29.288000,128
29.292000,189
29.297000,430
29.301000,497
29.304000,305
29.308000,125
29.312000,184
29.316000,426
29.320000,493
29.324000,298
29.328000,113
29.332000,171
29.336000,417
29.341000,484
29.344000,288
29.348000,111
29.352000,173
29.356000,418
29.360000,489
29.364000,296
29.368000,113
29.372000,167
29.376000,405
29.381000,470
29.385000,275
29.388000,93
29.392000,149
29.396000,388
29.400000,454
29.404000,259
29.408000,77
29.412000,132
29.416000,375
29.420000,446
29.425000,255
29.428000,74
29.432000,133
29.436000,378
29.440000,448
29.444000,256
29.448000,82
29.452000,153
29.456000,410
29.460000,489
29.464000,306
29.469000,133
29.472000,199
29.476000,447
29.480000,523
29.484000,336
29.488000,161
29.492000,227
29.496000,473
29.500000,544
29.504000,353
29.509000,173
29.513000,234
29.516000,478
29.520000,548
29.524000,357
29.528000,177
29.532000,238
29.536000,480
29.540000,549
29.544000,356
29.548000,177
29.553000,239
29.556000,480
29.560000,549
29.564000,355
29.568000,175
29.572000,235
29.576000,476
29.580000,545
29.584000,353
29.588000,175
29.592000,233
29.597000,475
29.600000,546
29.604000,356
29.608000,177
29.612000,237
29.616000,476
29.620000,543
29.624000,351
29.628000,173
29.632000,234
29.637000,474
29.641000,542
29.644000,349
29.648000,171
29.652000,235
29.656000,478
29.660000,547
29.664000,354
29.668000,175
29.672000,234
29.676000,475
29.681000,541
29.684000,345
29.688000,169
29.692000,235
29.696000,480
29.700000,546
29.704000,348
29.708000,169
29.712000,229
29.716000,471
29.720000,543
29.725000,358
29.728000,181
29.732000,241
29.736000,479
29.740000,544
29.744000,347
29.748000,160
29.752000,225
29.756000,477
29.760000,551
29.765000,358
29.769000,177
29.772000,238
29.776000,478
29.780000,545
29.784000,350
29.788000,169
29.792000,232
29.796000,475
29.800000,544
29.804000,347
29.809000,167
29.813000,231
29.816000,475
29.820000,544
29.824000,347
29.828000,162
29.832000,221
29.836000,468
29.840000,542
29.844000,348
29.848000,164
29.853000,223
29.856000,465
29.860000,534
29.864000,340
29.868000,160
29.872000,219
29.876000,460
29.880000,529
29.884000,338
29.888000,161
29.893000,223
29.897000,463
29.900000,531
29.904000,339
29.908000,162
29.912000,227
29.916000,474
29.920000,545
29.924000,352
29.928000,167
29.932000,223
29.937000,466
29.940000,543
29.944000,357
29.948000,178
29.952000,236
29.956000,473
29.960000,542
29.964000,355
29.968000,183
29.972000,248
29.976000,487
29.981000,543
29.984000,327
29.988000,118
29.992000,155
29.996000,385
30.000000,465
30.004000,311
30.008000,186
30.012000,295
30.016000,573
30.021000,647
30.025000,471
30.028000,278
30.032000,319
30.036000,542
30.040000,597
30.044000,391
30.048000,197
30.052000,245
30.056000,474
30.060000,533
30.065000,332
30.068000,148
30.072000,205
30.076000,445
30.080000,513
30.084000,320
30.088000,140
30.092000,199
30.096000,440
30.100000,508
30.104000,315
30.109000,135
30.112000,194
30.116000,436
30.120000,504
30.124000,312
30.128000,132
30.132000,192
30.136000,432
30.140000,500
30.144000,307
30.149000,128
30.153000,187
30.156000,428
30.160000,495
30.164000,302
30.168000,121
30.172000,178
30.176000,419
30.180000,486
30.184000,292
30.188000,107
30.193000,162
30.196000,403
30.200000,471
30.204000,276
30.208000,92
30.212000,148
30.216000,392
30.220000,463
30.224000,270
30.228000,89
30.232000,144
30.237000,386
30.240000,455
30.244000,266
30.248000,86
30.252000,149
30.256000,401
30.260000,478
30.264000,293
30.268000,121
30.272000,190
30.277000,439
30.281000,514
30.284000,328
30.288000,153
30.292000,219
30.296000,467
30.300000,540
30.304000,350
30.308000,171
30.312000,235
30.316000,482
30.321000,555
30.324000,364
30.328000,183
30.332000,242
30.336000,485
30.340000,555
30.344000,363
30.348000,183
30.352000,243
30.356000,483
30.360000,552
30.365000,359
30.368000,180
30.372000,240
30.376000,482
30.380000,550
30.384000,358
30.388000,182
30.392000,244
30.396000,484
30.400000,550
30.405000,357
30.409000,175
30.412000,232
30.416000,476
30.420000,548
30.424000,357
30.428000,178
30.432000,239
30.436000,480
30.440000,546
30.444000,351
30.449000,171
30.453000,229
30.456000,474
30.460000,549
30.464000,360
30.468000,181
30.472000,240
30.476000,481
30.480000,548
30.484000,355
30.488000,176
30.493000,235
30.496000,476
30.500000,541
30.504000,348
30.508000,171
30.512000,237
30.516000,481
30.520000,549
30.524000,355
30.528000,175
30.533000,235
30.537000,475
30.540000,544
30.544000,351
30.548000,172
30.552000,233
30.556000,472
30.560000,539
30.564000,347
30.568000,170
30.572000,232
30.577000,470
30.580000,536
30.584000,344
30.588000,166
30.592000,228
30.596000,469
30.600000,536
30.604000,346
30.608000,172
30.612000,235
30.616000,475
30.621000,541
30.624000,346
30.628000,167
30.632000,227
30.636000,469
30.640000,536
30.644000,342
30.648000,164
30.652000,226
30.656000,468
30.661000,535
30.665000,339
30.668000,158
30.672000,219
30.676000,463
30.680000,529
30.684000,334
30.688000,155
30.692000,215
30.696000,456
30.700000,523
30.705000,329
30.708000,149
30.712000,209
30.716000,451
30.720000,518
30.724000,323
30.728000,144
30.732000,209
30.736000,456
30.740000,527
30.744000,335
30.749000,156
30.752000,220
30.756000,464
30.760000,527
30.764000,332
30.768000,158
30.772000,224
30.776000,467
30.780000,536
30.784000,343
30.789000,165
30.793000,225
30.796000,467
30.800000,538
30.804000,350
30.808000,176
30.812000,237
30.816000,468
30.820000,510
30.824000,290
30.828000,94
30.833000,153
30.836000,414
30.840000,513
30.844000,364
30.848000,229
30.852000,327
30.856000,583
30.860000,640
30.864000,439
30.868000,237
30.872000,280
30.877000,505
30.880000,557
30.884000,350
30.888000,160
30.892000,213
30.896000,450
30.900000,514
30.904000,318
30.908000,137
30.912000,194
30.917000,435
30.921000,506
30.924000,316
30.928000,136
30.932000,195
30.936000,434
30.940000,500
30.944000,307
30.948000,126
30.952000,185
30.956000,428
30.961000,496
30.964000,302
30.968000,124
30.972000,187
30.976000,430
30.980000,494
30.984000,294
30.988000,116
30.992000,182
30.996000,427
31.000000,492
31.005000,294
31.008000,113
31.012000,175
31.016000,416
31.020000,479
31.024000,281
31.028000,102
31.032000,162
31.036000,404
31.040000,466
31.045000,265
31.049000,85
31.052000,148
31.056000,393
31.060000,460
31.064000,266
31.068000,85
31.072000,143
31.076000,386
31.080000,455
31.084000,265
31.089000,91
31.093000,157
31.096000,404
31.100000,477
31.104000,290
31.108000,118
31.112000,190
31.116000,441
31.120000,516
31.124000,329
31.128000,157
31.133000,223
31.136000,469
31.140000,538
31.144000,346
31.148000,170
31.152000,234
31.156000,477
31.160000,545
31.164000,351
31.168000,171
31.173000,233
31.177000,473
31.180000,543
31.184000,355
31.188000,182
31.192000,245
31.196000,482
31.200000,545
31.204000,351
31.208000,174
31.212000,237
31.217000,478
31.220000,543
31.224000,349
31.228000,172
31.232000,235
31.236000,477
31.240000,544
31.244000,351
31.248000,170
31.252000,232
31.256000,474
31.261000,540
31.264000,347
31.268000,168
31.272000,229
31.276000,470
31.280000,536
31.284000,345
31.288000,169
31.292000,232
31.296000,473
31.301000,540
31.305000,349
31.308000,172
31.312000,232
31.316000,473
31.320000,541
31.324000,349
31.328000,172
31.332000,235
31.336000,477
31.340000,542
31.345000,347
31.348000,168
31.352000,232
31.356000,474
31.360000,540
31.364000,347
31.368000,168
31.372000,231
31.376000,473
31.380000,540
31.384000,347
31.389000,169
31.392000,233
31.396000,472
31.400000,533
31.404000,338
31.408000,165
31.412000,233
31.416000,474
31.420000,536
31.424000,341
31.429000,165
31.433000,233
31.436000,475
31.440000,539
31.444000,344
31.448000,164
31.452000,226
31.456000,468
31.460000,534
31.464000,342
31.468000,166
31.473000,230
31.476000,471
31.480000,536
31.484000,341
31.488000,164
31.492000,227
31.496000,468
31.500000,531
31.504000,337
31.508000,162
31.512000,228
31.517000,471
31.520000,534
31.524000,338
31.528000,158
31.532000,223
31.536000,468
31.540000,535
31.544000,339
31.548000,160
31.552000,223
31.557000,464
31.561000,527
31.564000,333
31.568000,154
31.572000,217
31.576000,457
31.580000,520
31.584000,326
31.588000,147
31.592000,212
31.596000,457
31.601000,525
31.604000,332
31.608000,155
31.612000,221
31.616000,468
31.620000,536
31.624000,342
31.628000,162
31.632000,227
31.636000,470
31.640000,532
31.645000,338
31.648000,164
31.652000,233
31.656000,475
31.660000,537
31.664000,341
31.668000,166
31.672000,236
31.676000,483
31.680000,546
31.685000,337
31.689000,135
31.692000,175
31.696000,401
31.700000,468
31.704000,301
31.708000,162
31.712000,274
31.716000,556
31.720000,644
31.724000,464
31.729000,272
31.732000,315
31.736000,535
31.740000,579
31.744000,367
31.748000,177
31.752000,233
31.756000,465
31.760000,516
31.764000,316
31.768000,140
31.773000,205
31.776000,445
31.780000,505
31.784000,310
31.788000,135
31.792000,201
31.796000,440
31.800000,500
31.804000,307
31.808000,132
31.813000,198
31.817000,439
31.820000,498
31.824000,303
31.828000,126
31.832000,191
31.836000,431
31.840000,491
31.844000,296
31.848000,120
31.852000,186
31.857000,427
31.861000,488
31.864000,291
31.868000,113
31.872000,175
31.876000,413
31.880000,474
31.884000,281
31.888000,105
31.892000,171
31.896000,413
31.901000,475
31.904000,277
31.908000,96
31.912000,154
31.916000,395
31.920000,458
31.924000,264
31.928000,86
31.932000,150
31.936000,392
31.941000,452
31.945000,256
31.948000,83
31.952000,151
31.956000,397
31.960000,464
31.964000,274
31.968000,107
31.972000,181
31.976000,431
31.980000,500
31.985000,310
31.989000,142
31.992000,215
31.996000,460
32.000000,524
32.004000,333
32.008000,163
32.012000,234
32.016000,478
32.020000,542
32.024000,347
32.029000,173
32.032000,241
32.036000,480
32.040000,541
32.044000,346
32.048000,172
32.052000,241
32.056000,484
32.060000,544
32.064000,348
32.069000,173
32.073000,240
32.076000,482
32.080000,542
32.084000,344
32.088000,168
32.092000,237
32.096000,479
32.100000,538
32.104000,340
32.108000,166
32.113000,237
32.117000,480
32.120000,542
32.124000,343
32.128000,167
32.132000,234
32.136000,477
32.140000,536
32.144000,339
32.148000,164
32.152000,233
32.157000,477
32.160000,540
32.164000,343
32.168000,166
32.172000,236
32.176000,480
32.180000,544
32.184000,346
32.188000,169
32.192000,234
32.197000,476
32.201000,537
32.204000,340
32.208000,165
32.212000,231
32.216000,474
32.220000,538
32.224000,346
32.228000,171
32.232000,237
32.236000,475
32.241000,534
32.244000,339
32.248000,166
32.252000,234
32.256000,474
32.260000,531
32.264000,335
32.268000,163
32.272000,232
32.276000,474
32.280000,533
32.285000,336
32.288000,162
32.292000,229
32.296000,473
32.300000,532
32.304000,334
32.308000,159
32.312000,228
32.316000,471
32.320000,532
32.325000,336
32.329000,160
32.332000,228
32.336000,471
32.340000,533
32.344000,337
32.348000,162
32.352000,230
32.356000,472
32.360000,532
32.364000,335
32.369000,161
32.372000,231
32.376000,472
32.380000,532
32.384000,335
32.388000,160
32.392000,229
32.396000,471
32.400000,531
32.404000,334
32.408000,159
32.413000,228
32.416000,472
32.420000,531
32.424000,333
32.428000,158
32.432000,226
32.436000,469
32.440000,528
32.444000,330
32.448000,150
32.453000,217
32.457000,464
32.460000,528
32.464000,333
32.468000,157
32.472000,220
32.476000,454
32.480000,511
32.484000,317
32.488000,146
32.492000,220
32.497000,464
32.501000,523
32.504000,326
32.508000,153
32.512000,225
32.516000,471
32.520000,532
32.524000,334
32.528000,159
32.532000,230
32.536000,472
32.541000,529
32.544000,330
32.548000,157
32.552000,227
32.556000,466
32.560000,523
32.564000,332
32.568000,166
32.572000,240
32.576000,483
32.581000,536
32.585000,327
32.588000,131
32.592000,177
32.596000,401
32.600000,456
32.604000,283
32.608000,152
32.612000,275
32.616000,562
32.620000,643
32.625000,461
32.628000,275
32.632000,325
32.636000,544
32.640000,585
32.644000,372
32.648000,183
32.652000,240
32.656000,469
32.660000,516
32.664000,312
32.669000,136
32.672000,203
32.676000,442
32.680000,503
32.684000,309
32.688000,134
32.692000,200
32.696000,439
32.700000,496
32.704000,298
32.709000,128
32.713000,201
32.716000,444
32.720000,500
32.724000,303
32.728000,127
32.732000,195
32.736000,434
32.740000,490
32.744000,294
32.748000,123
32.753000,195
32.756000,436
32.760000,491
32.764000,293
32.768000,118
32.772000,186
32.776000,427
32.780000,481
32.784000,281
32.788000,105
32.792000,172
32.797000,409
32.800000,463
32.804000,267
32.808000,97
32.812000,166
32.816000,402
32.820000,454
32.824000,256
32.828000,85
32.832000,155
32.837000,398
32.841000,450
32.844000,250
32.848000,81
32.852000,155
32.856000,404
32.860000,465
32.864000,270
32.868000,104
32.872000,182
32.876000,431
32.881000,496
32.884000,309
32.888000,147
32.892000,226
32.896000,471
32.900000,530
32.904000,334
32.908000,165
32.912000,240
32.916000,483
32.920000,540
32.925000,344
32.928000,173
32.932000,245
32.936000,488
32.940000,546
32.944000,350
32.948000,177
32.952000,249
32.956000,490
32.960000,544
32.965000,344
32.969000,173
32.972000,248
32.976000,490
32.980000,544
32.984000,345
32.988000,171
32.992000,242
32.996000,483
33.000000,539
33.004000,340
33.009000,167
33.013000,242
33.016000,486
33.020000,542
33.024000,343
33.028000,173
33.032000,250
33.036000,491
33.040000,545
33.044000,345
33.048000,173
33.053000,246
33.056000,487
33.060000,539
33.064000,340
33.068000,171
33.072000,246
33.076000,488
33.080000,540
33.084000,340
33.088000,168
33.093000,244
33.097000,488
33.100000,545
33.104000,346
33.108000,174
33.112000,245
33.116000,483
33.120000,536
33.124000,333
33.128000,161
33.132000,242
33.137000,491
33.141000,548
33.144000,348
33.148000,174
33.152000,244
33.156000,483
33.160000,537
33.164000,339
33.168000,169
33.172000,243
33.176000,482
33.181000,533
33.184000,336
33.188000,169
33.192000,244
33.196000,485
33.200000,538
33.204000,337
33.208000,165
33.212000,240
33.216000,483
33.221000,538
33.225000,339
33.228000,168
33.232000,241
33.236000,481
33.240000,533
33.244000,329
33.248000,157
33.252000,234
33.256000,479
33.260000,534
33.265000,338
33.268000,168
33.272000,242
33.276000,483
33.280000,534
33.284000,335
33.288000,167
33.292000,243
33.296000,484
33.300000,535
33.304000,334
33.309000,161
33.312000,237
33.316000,480
33.320000,531
33.324000,328
33.328000,159
33.332000,237
33.336000,480
33.340000,530
33.344000,328
33.349000,158
33.353000,236
33.356000,477
33.360000,529
33.364000,330
33.368000,159
33.372000,234
33.376000,477
33.380000,528
33.384000,328
33.388000,158
33.393000,232
33.397000,471
33.400000,521
33.404000,319
33.408000,148
33.412000,224
33.416000,467
33.420000,521
33.424000,322
33.428000,152
33.432000,228
33.437000,470
33.440000,522
33.444000,323
33.448000,154
33.452000,232
33.456000,476
33.460000,530
33.464000,331
33.468000,161
33.472000,233
33.477000,470
33.481000,525
33.484000,332
33.488000,164
33.492000,238
33.496000,479
33.500000,533
33.504000,338
33.508000,172
33.512000,248
33.516000,484
33.521000,520
33.524000,294
33.528000,98
33.532000,155
33.536000,399
33.540000,481
33.544000,331
33.548000,215
33.552000,337
33.556000,604
33.560000,644
33.565000,449
33.568000,256
33.572000,310
33.576000,533
33.580000,570
33.584000,355
33.588000,170
33.592000,233
33.596000,464
33.600000,508
33.605000,304
33.609000,136
33.612000,212
33.616000,453
33.620000,504
33.624000,303
33.628000,132
33.632000,207
33.636000,447
33.640000,497
33.644000,297
33.649000,127
33.653000,204
33.656000,443
33.660000,493
33.664000,292
33.668000,122
33.672000,194
33.676000,433
33.680000,481
33.684000,276
33.688000,110
33.693000,188
33.696000,433
33.700000,486
33.704000,286
33.708000,116
33.712000,188
33.716000,424
33.720000,470
33.724000,266
33.728000,95
33.733000,167
33.737000,408
33.740000,454
33.744000,251
33.748000,79
33.752000,151
33.756000,390
33.760000,442
33.764000,244
33.768000,75
33.772000,150
33.777000,392
33.781000,442
33.784000,243
33.788000,76
33.792000,154
33.796000,401
33.800000,458
33.804000,263
33.808000,103
33.812000,191
33.816000,441
33.821000,497
33.824000,305
33.828000,146
33.832000,231
33.836000,476
33.840000,528
33.844000,331
33.848000,169
33.852000,250
33.856000,492
33.861000,541
33.865000,339
33.868000,171
33.872000,249
33.876000,490
33.880000,541
33.884000,339
33.888000,171
33.892000,250
33.896000,492
33.900000,541
33.905000,340
33.908000,171
33.912000,249
33.916000,490
33.920000,539
33.924000,338
33.928000,169
33.932000,246
33.936000,488
33.940000,539
33.944000,337
33.949000,164
33.952000,242
33.956000,488
33.960000,542
33.964000,342
33.968000,172
33.972000,247
33.976000,481
33.980000,530
33.984000,336
33.989000,174
33.993000,255
33.996000,496
34.000000,542
34.004000,339
34.008000,169
34.012000,247
34.016000,487
34.020000,535
34.024000,334
34.028000,167
34.033000,246
34.036000,487
34.040000,537
34.044000,335
34.048000,168
34.052000,248
34.056000,487
34.060000,536
34.064000,337
34.068000,172
34.072000,252
34.077000,492
34.080000,539
34.084000,335
34.088000,164
34.092000,243
34.096000,486
34.100000,536
34.104000,336
34.108000,166
34.112000,245
34.117000,486
34.121000,535
34.124000,331
34.128000,161
34.132000,242
34.136000,487
34.140000,539
34.144000,338
34.148000,169
34.152000,245
34.156000,483
34.161000,530
34.164000,328
34.168000,162
34.172000,242
34.176000,483
34.180000,531
34.184000,329
34.188000,162
34.192000,240
34.196000,480
34.200000,527
34.205000,325
34.208000,159
34.212000,240
34.216000,479
34.220000,528
34.224000,328
34.228000,161
34.232000,240
34.236000,480
34.240000,527
34.245000,324
34.249000,156
34.252000,235
34.256000,477
34.260000,527
34.264000,328
34.268000,160
34.272000,238
34.276000,475
34.280000,524
34.284000,326
34.289000,160
34.293000,235
34.296000,472
34.300000,519
34.304000,317
34.308000,150
34.312000,230
34.316000,471
34.320000,515
34.324000,312
34.328000,143
34.333000,221
34.336000,463
34.340000,512
34.344000,311
34.348000,144
34.352000,224
34.356000,465
34.360000,514
34.364000,313
34.368000,148
34.373000,228
34.377000,471
34.380000,522
34.384000,323
34.388000,156
34.392000,233
34.396000,473
34.400000,521
34.404000,322
34.408000,155
34.412000,237
34.417000,479
34.420000,528
34.424000,326
34.428000,161
34.432000,244
34.436000,489
34.440000,535
34.444000,325
34.448000,138
34.452000,189
34.456000,406
34.461000,437
34.464000,242
34.468000,108
34.472000,240
34.476000,539
34.480000,636
34.484000,461
34.488000,292
34.492000,358
34.496000,575
34.501000,601
34.505000,380
34.508000,195
34.512000,258
34.516000,482
34.520000,517
34.524000,302
34.528000,130
34.532000,213
34.536000,458
34.540000,505
34.545000,300
34.548000,128
34.552000,204
34.556000,445
34.560000,491
34.564000,288
34.568000,117
34.572000,198
34.576000,443
34.580000,492
34.584000,289
34.589000,118
34.592000,194
34.596000,436
34.600000,485
34.604000,285
34.608000,116
34.612000,193
34.616000,433
34.620000,476
34.624000,272
34.629000,103
34.633000,183
34.636000,428
34.640000,475
34.644000,270
34.648000,97
34.652000,172
34.656000,411
34.660000,454
34.664000,250
34.668000,80
34.673000,158
34.676000,399
34.680000,444
34.684000,240
34.688000,70
34.692000,146
34.696000,388
34.700000,435
34.704000,232
34.708000,65
34.712000,143
34.717000,387
34.720000,439
34.724000,244
34.728000,84
34.732000,171
34.736000,423
34.740000,480
34.744000,287
34.748000,128
34.752000,215
34.757000,459
34.761000,512
34.764000,320
34.768000,163
34.772000,250
34.776000,493
34.780000,539
34.784000,336
34.788000,169
34.792000,251
34.796000,496
34.801000,544
34.804000,343
34.808000,177
34.812000,256
34.816000,494
34.820000,539
34.824000,339
34.828000,175
34.832000,258
34.836000,497
34.840000,541
34.845000,336
34.848000,168
34.852000,251
34.856000,494
34.860000,542
34.864000,338
34.868000,170
34.872000,250
34.876000,491
34.880000,535
34.885000,331
34.889000,168
34.892000,254
34.896000,495
34.900000,539
34.904000,335
34.908000,170
34.912000,253
34.916000,495
34.920000,542
34.924000,338
34.929000,167
34.933000,248
34.936000,491
34.940000,541
34.944000,338
34.948000,170
34.952000,249
34.956000,489
34.960000,537
34.964000,336
34.968000,167
34.973000,247
34.976000,488
34.980000,534
34.984000,335
34.988000,173
34.992000,257
34.996000,496
35.000000,537
35.004000,332
35.008000,167
35.013000,252
35.017000,494
35.020000,539
35.024000,335
35.028000,167
35.032000,247
35.036000,489
35.040000,535
